*TYPE		=  Raw
*CLASS		=  ASCII CLASS
*SAMPLE		=  Ni-ZnCdS
*COMMENT	=   
*FNAME		=  blanksi-2_Theta_2-Theta.asc
*DATE		=  01-Jun-26 15:43

*GROUP_COUNT	=  1
*GONIO		=  SmartLab, 0.000000
*ATTACHMENT	=  Standard Z stage
*ASC		=  0, 0, 0.000000, 0.000000
*I_MONOCHRO	=  Soller_slit_5.0deg, 0.000000
*FILTER		=  Cu_K-beta
*C_MONOCHRO	=  None, 0.000000
*SLIT_NAME	=  0, Incident slit
*SLIT_NAME	=  1, Receiving slit # 1
*SLIT_NAME	=  2, Receiving slit # 2
*COUNTER	=  D/teX Ultra, 0
*POS_FORMAT	=  0
*SCAN_AXIS	=  2theta/theta
*MEAS_MODE	=  Continuous Scanning
*TARGET		=  29
*XRAY_CHAR	=  K-ALPHA
*WAVE_LENGTH1	=  1.54059
*WAVE_LENGTH2	=  1.54441
*THICKNESS	=  0, 0.000000
*MU		=  0, 0.000000
*SCAN_MODE	=  2theta/theta
*SPEED_DIM	=  sec./step
*XUNIT		=  deg.
*YUNIT		=  counts
*SCALE_MODE	=  1
*REP_COUNT	=  0
*SE_COUNT	=  0
*STD_MATERIAL	=  Unknown, Unknown, 0.000000, 0.000000, 0.000000, 0.000000, 0.000000, 0.000000
*LATT_CONS	=  0, Unknown, Unknown, 0.000000, 0.000000, 0.000000, 0.000000, 0.000000, 0.000000
*SEC_COUNT	=  1
*TSPEC_SIZE	=  0
*EXTRA_SIZE	=  0
*MEMO		=   

*BEGIN
*GROUP		=  0
*START		=  10
*STOP		=  80
*STEP		=  0.02
*OFFSET		=  0.000000
*SPEED		=  0.12
*SLIT_SPEC	=  0, 2/3deg, 2, 0.000000
*SLIT_SPEC	=  1, 20.000mm, 20, 0.000000
*SLIT_SPEC	=  2, 20.000mm, 20, 0.000000
*KV		=  40
*MA		=  150
*LOW		=  0.000000
*HIGH		=  0.000000
*CTEMPER	=  0, 0.000000
*CTEMPER	=  1, 0.000000
*CTEMPER	=  2, 0.000000
*PAREX		=  0, 0.000000
*PAREX		=  1, 0.000000
*PAREX		=  2, 0.000000
*PAREX		=  3, 0.000000
*PAREX		=  4, 0.000000
*PAREX		=  5, 0.000000
*PAREX		=  6, 0.000000
*PAREX		=  7, 0.000000
*PAREX		=  8, 0.000000
*PAREX		=  9, 0.000000
*PAREX		=  10, 0.000000
*PAREX		=  11, 0.000000
*PAREX		=  12, 0.000000
*PAREX		=  13, 0.000000
*PAREX		=  14, 0.000000
*PAREX		=  15, 0.000000
*FULL_SCALE	=  288880
*INDEX		=  0, 0, 0
*COUNT		=  3501
14135, 14266, 14464, 14290
14167, 14068, 14075, 13880
14155, 13941, 14157, 14034
14075, 14071, 13871, 14003
13847, 13945, 14155, 14241
13965, 13998, 14050, 13858
13971, 13916, 13844, 13804
14039, 13849, 13672, 13956
13728, 13902, 13948, 13621
13519, 13992, 13837, 13848
13846, 13617, 13872, 13708
13895, 13602, 13708, 13769
13792, 13906, 13930, 13751
13769, 13806, 13942, 13815
13876, 13909, 13954, 13933
14045, 14293, 14151, 14370
14324, 14308, 14176, 14098
14214, 14161, 13869, 14080
13803, 13965, 13881, 13835
13970, 13607, 13873, 13914
13774, 14008, 13783, 13746
13800, 13828, 13931, 13969
14032, 14073, 14195, 14026
14138, 14063, 14182, 13835
14054, 14278, 14339, 14307
14295, 14296, 14541, 14496
14567, 14624, 14472, 14794
14756, 14805, 14787, 14875
14946, 15040, 15118, 15179
15352, 15634, 15636, 15641
15754, 15909, 15970, 15953
16118, 16427, 16463, 16489
16735, 16929, 16700, 17025
17153, 17230, 17185, 17368
17348, 17550, 17622, 17461
17639, 17683, 17744, 18196
17702, 17867, 17994, 18015
18037, 18035, 17953, 18039
17959, 17908, 17989, 17941
18187, 18043, 18018, 18298
18034, 17775, 17915, 17994
17750, 17707, 17681, 17873
17914, 17523, 17467, 17459
17497, 17566, 17511, 17416
17325, 17398, 17498, 17380
17203, 17225, 17156, 17258
17296, 17242, 17129, 17083
17018, 16997, 16902, 16892
16993, 17072, 16773, 16813
16695, 16612, 16415, 16431
16657, 16528, 16634, 16375
16448, 16396, 16216, 16075
16244, 16068, 16205, 16426
16261, 16142, 16197, 16278
16397, 16131, 16059, 16120
16160, 15850, 15673, 15694
15661, 15355, 15536, 15367
15153, 15410, 15097, 15179
15292, 15344, 15080, 15010
14864, 14768, 14818, 14829
14776, 14899, 14768, 14608
14613, 14467, 14576, 14425
14272, 14120, 14284, 14176
14369, 14140, 14107, 13859
13796, 13826, 14141, 13905
13892, 13624, 13878, 13688
13518, 13572, 13657, 13510
13616, 13628, 13579, 13439
13378, 13529, 13468, 13280
13288, 13352, 13199, 12915
12902, 13036, 13051, 12941
12918, 12739, 12879, 12773
12847, 12984, 12880, 12586
12641, 12529, 12438, 12460
12548, 12321, 12465, 12412
12578, 12285, 12307, 12283
12135, 12159, 12260, 12173
12327, 12234, 12009, 12213
11957, 12083, 11956, 12071
11862, 11694, 11780, 11880
11738, 11734, 11779, 11901
11814, 11813, 11818, 11595
11676, 11322, 11517, 11643
11688, 11506, 11638, 11470
11522, 11535, 11482, 11341
11514, 11469, 11362, 11089
11332, 11079, 11122, 11274
11038, 11336, 11344, 11019
11159, 11215, 10993, 10976
11138, 11185, 11084, 10959
10952, 10990, 10834, 11008
10998, 10812, 10877, 10884
10815, 10685, 10674, 10895
10848, 11033, 10770, 10820
10967, 10744, 10830, 10681
10783, 10593, 10723, 10835
10537, 10646, 10775, 10600
10715, 10710, 10807, 10846
10870, 10625, 10775, 10621
10741, 10521, 10748, 10690
10666, 10610, 10729, 10562
10561, 10560, 10685, 10647
10575, 10364, 10471, 10457
10572, 10387, 10525, 10309
10402, 10333, 10314, 10218
10418, 10307, 10551, 10418
10414, 10321, 10186, 10291
10302, 10220, 10408, 10262
10245, 10111, 10228, 10275
10268, 10172, 10057, 10047
10223, 10296, 10027, 10275
10114, 10243, 10039, 10101
9944, 10149, 10315, 9971
9843, 10015, 10137, 10062
10096, 10168, 9971, 9927
10027, 9840, 9899, 9957
9948, 9846, 9838, 9976
9811, 9890, 9770, 9967
9754, 9942, 9830, 9935
9834, 10033, 9975, 9920
9913, 9854, 9831, 9940
9771, 9893, 9727, 9831
9771, 9782, 9699, 9779
9789, 9844, 9903, 9899
9817, 9762, 9775, 9732
9792, 9828, 9592, 9687
9898, 9815, 9803, 9615
9781, 9569, 9576, 9590
9561, 9609, 9812, 9662
9870, 9672, 9892, 9694
9791, 9702, 9721, 9742
9730, 9741, 9717, 9880
9782, 9626, 9737, 9665
9737, 9600, 9617, 9564
9567, 9754, 9635, 9714
9773, 9798, 9604, 9805
9766, 9784, 9649, 9875
9802, 9586, 9738, 9706
9842, 9659, 9655, 9781
9794, 9618, 9739, 9938
9787, 9645, 9769, 9854
9832, 9684, 9738, 9771
9658, 9537, 9811, 9780
9803, 9708, 9786, 9591
9665, 9755, 9708, 9733
9749, 9628, 9610, 9731
9689, 9667, 9706, 9753
9595, 9689, 9750, 9697
9601, 9672, 9800, 9665
9492, 9695, 9648, 9705
9624, 9548, 9449, 9818
9734, 9832, 9686, 9713
9799, 9771, 9906, 9786
9989, 9841, 9595, 9689
9864, 9719, 9805, 9968
9749, 9911, 9869, 9769
9886, 9793, 9731, 9811
9923, 9757, 9801, 9990
9945, 9870, 9924, 9981
9938, 10023, 9846, 9897
10057, 9893, 10082, 10121
10208, 10107, 10030, 10020
9956, 10167, 10257, 10287
10168, 10401, 10356, 10344
10327, 10382, 10372, 10427
10396, 10345, 10411, 10440
10598, 10449, 10643, 10719
10709, 10800, 10777, 10623
10719, 10734, 10870, 11014
10709, 10923, 11033, 10984
11144, 11138, 11053, 11137
11268, 11197, 11288, 11405
11385, 11272, 11411, 11536
11432, 11514, 11404, 11311
11508, 11551, 11527, 11505
11696, 11447, 11615, 11745
11618, 11609, 11672, 11636
11793, 11784, 11766, 11697
11613, 11891, 11906, 11941
11987, 12059, 11772, 11862
11934, 12092, 12061, 12223
12170, 11970, 12220, 12358
12285, 12595, 12487, 12652
12650, 12835, 12799, 12902
12985, 13246, 13063, 13485
13547, 13653, 13852, 13938
14063, 14206, 14391, 14551
14456, 14503, 14589, 14892
14890, 14908, 14907, 14999
14975, 14819, 15093, 14757
15041, 15000, 15127, 15054
14780, 15298, 15228, 15511
15825, 15650, 15694, 15997
15912, 16505, 16615, 16566
16870, 17231, 17066, 17511
17715, 17884, 18110, 18368
18566, 19002, 19217, 19746
19703, 20193, 20762, 20934
21385, 21490, 22322, 21992
22785, 23338, 23628, 23933
24354, 24663, 25080, 25458
26030, 26463, 26791, 26896
27072, 27784, 27908, 28159
28263, 28315, 28515, 28760
28701, 28636, 28888, 28674
28534, 28278, 28179, 28122
27976, 27315, 27022, 26561
26446, 26297, 26035, 25995
25364, 25340, 24943, 23794
23290, 22938, 22380, 21502
21272, 20365, 19937, 19395
19122, 18390, 18225, 17770
17384, 17019, 16662, 16441
15988, 15752, 15480, 15218
15173, 14614, 14567, 14221
14081, 13837, 13754, 13596
13391, 13162, 13214, 13202
12912, 12847, 12626, 12606
12320, 12218, 12209, 12015
12016, 12000, 11865, 11492
11656, 11706, 11492, 11321
11526, 11326, 11315, 11162
11136, 11186, 11264, 10928
10997, 11332, 11274, 11171
10985, 11188, 11066, 11173
11010, 11112, 11172, 11396
11468, 11693, 11558, 11736
11683, 11645, 11822, 11824
11977, 12177, 12266, 12303
12368, 12349, 12233, 12224
12371, 12246, 11913, 12019
11924, 11799, 11572, 11348
11298, 11037, 11177, 10966
10709, 10699, 10622, 10545
10475, 10358, 10121, 10059
10066, 10126, 10006, 9930
9792, 9943, 9743, 9755
9633, 9644, 9597, 9507
9402, 9509, 9404, 9389
9319, 9309, 9123, 9199
9219, 9128, 9070, 9272
9178, 9125, 9137, 9097
9237, 9130, 8919, 9020
9012, 8938, 8872, 8822
8854, 8849, 8702, 8911
8785, 8617, 8627, 8723
8699, 8667, 8527, 8543
8623, 8543, 8599, 8621
8435, 8422, 8291, 8368
8294, 8324, 8367, 8242
8257, 8299, 8283, 8232
8108, 8165, 8226, 8180
8230, 8117, 8089, 8106
7925, 8000, 8098, 8108
7966, 8078, 8000, 7814
8068, 7983, 7981, 7941
7975, 7896, 7923, 7861
7940, 7970, 7922, 7972
7939, 7807, 7862, 7885
7775, 7883, 7901, 7816
7669, 7512, 7617, 7726
7672, 7818, 7741, 7760
7803, 7503, 7715, 7627
7671, 7547, 7601, 7595
7501, 7432, 7566, 7528
7481, 7666, 7715, 7518
7657, 7403, 7501, 7482
7479, 7463, 7375, 7417
7326, 7573, 7340, 7346
7276, 7391, 7606, 7466
7441, 7295, 7564, 7559
7504, 7441, 7373, 7262
7286, 7425, 7353, 7205
7264, 7357, 7094, 7308
7282, 7375, 7348, 7129
7293, 7208, 7136, 7256
7274, 7205, 7160, 7255
7113, 7155, 7155, 7241
7182, 7134, 7075, 7118
7219, 7060, 7160, 7248
7192, 7023, 7122, 7058
7071, 7036, 7046, 7074
7030, 7012, 7028, 7164
7030, 7007, 7103, 7056
7188, 7145, 7078, 7091
7049, 7215, 7077, 7061
7147, 6969, 7066, 7037
7007, 7133, 6980, 7146
7063, 7020, 6914, 7091
6948, 6978, 6967, 7019
7153, 7084, 6892, 7050
7178, 7078, 7061, 7024
7171, 7126, 7083, 7124
7008, 7173, 7267, 6996
7143, 7094, 6970, 7151
7087, 7010, 6973, 7058
6960, 7051, 7037, 6985
6810, 6925, 7008, 7033
7143, 6869, 7009, 6970
7003, 6913, 6923, 6987
6927, 6859, 6836, 6893
7020, 7015, 6781, 6924
6975, 6835, 6622, 6961
6885, 6840, 6950, 6788
6884, 6928, 6890, 6945
6805, 6914, 6819, 6722
6935, 6825, 6793, 6789
6811, 6877, 6821, 6768
6818, 6752, 6798, 6893
6788, 6958, 6735, 6672
6850, 6688, 6684, 6710
6809, 6776, 6669, 6814
6746, 6565, 6733, 6613
6595, 6731, 6738, 6734
6680, 6847, 6833, 6647
6743, 6767, 6683, 6584
6632, 6827, 6685, 6774
6648, 6759, 6715, 6776
6580, 6741, 6665, 6577
6669, 6643, 6604, 6598
6731, 6700, 6665, 6716
6500, 6708, 6690, 6620
6674, 6606, 6705, 6674
6622, 6521, 6658, 6742
6584, 6721, 6709, 6658
6582, 6748, 6845, 6794
6828, 6856, 6759, 6643
6681, 6827, 6640, 6678
6749, 6797, 6819, 6741
6624, 6759, 6818, 6787
6765, 6743, 6799, 6711
6881, 6797, 6990, 7056
7016, 6860, 7052, 6906
6963, 6951, 6931, 6948
6931, 7044, 6881, 6999
6938, 7101, 7005, 7063
7007, 7056, 7138, 7010
7059, 6779, 7024, 6965
6856, 6959, 6918, 6897
6675, 6859, 6731, 6864
6785, 6821, 6807, 6763
6794, 6812, 6766, 6672
6678, 6621, 6669, 6627
6591, 6748, 6719, 6763
6689, 6645, 6551, 6549
6701, 6582, 6505, 6465
6483, 6606, 6600, 6467
6511, 6457, 6353, 6550
6526, 6398, 6469, 6484
6514, 6389, 6395, 6487
6391, 6392, 6247, 6438
6378, 6339, 6361, 6330
6257, 6150, 6379, 6263
6319, 6394, 6362, 6328
6411, 6197, 6182, 6327
6371, 6289, 6204, 6239
6302, 6299, 6296, 6207
6174, 6329, 6390, 6353
6188, 6115, 6254, 6147
6157, 6185, 6065, 6110
6254, 6229, 6214, 6110
6107, 6114, 6035, 5944
6156, 5970, 6131, 6127
6148, 5946, 6117, 6074
6087, 5981, 6147, 5996
6026, 6051, 5922, 6017
6010, 5986, 5967, 6087
5953, 6007, 6092, 6088
5927, 5787, 5890, 5826
5792, 5961, 5898, 5877
5999, 5997, 5970, 5746
5910, 5994, 5939, 5880
5808, 5959, 6077, 5873
5910, 5896, 5784, 5793
5894, 5789, 6021, 5769
5772, 5806, 5791, 5788
5743, 5754, 5705, 5869
5751, 5731, 5567, 5843
5774, 5814, 5784, 5898
5702, 5789, 5702, 5722
5749, 5726, 5605, 5794
5658, 5739, 5691, 5758
5742, 5726, 5644, 5799
5763, 5666, 5673, 5673
5638, 5699, 5656, 5697
5541, 5677, 5861, 5630
5632, 5633, 5592, 5674
5551, 5666, 5558, 5667
5619, 5446, 5572, 5559
5609, 5552, 5620, 5549
5660, 5581, 5608, 5491
5610, 5507, 5604, 5583
5675, 5556, 5452, 5488
5538, 5469, 5449, 5509
5520, 5676, 5472, 5526
5521, 5514, 5495, 5478
5524, 5498, 5444, 5502
5734, 5548, 5482, 5496
5513, 5477, 5477, 5380
5453, 5551, 5540, 5492
5494, 5491, 5479, 5423
5468, 5553, 5496, 5382
5464, 5454, 5262, 5353
5489, 5450, 5458, 5365
5356, 5425, 5376, 5309
5320, 5444, 5369, 5388
5372, 5489, 5404, 5355
5416, 5393, 5395, 5310
5439, 5320, 5395, 5411
5301, 5487, 5476, 5494
5443, 5470, 5391, 5350
5255, 5454, 5229, 5337
5355, 5331, 5396, 5400
5440, 5376, 5328, 5420
5476, 5364, 5283, 5458
5333, 5393, 5354, 5480
5447, 5299, 5377, 5401
5368, 5331, 5449, 5427
5436, 5462, 5435, 5605
5506, 5477, 5639, 5617
5595, 5633, 5697, 5692
5743, 5666, 5671, 5758
5840, 5760, 5784, 5775
5870, 5945, 5965, 5940
5987, 5792, 5868, 5908
5823, 5914, 5874, 5931
5710, 5816, 5889, 5892
5692, 5711, 5806, 5801
5752, 5651, 5494, 5605
5632, 5626, 5541, 5657
5655, 5614, 5517, 5497
5611, 5542, 5602, 5674
5423, 5330, 5402, 5468
5514, 5408, 5526, 5424
5418, 5315, 5404, 5382
5409, 5306, 5288, 5401
5435, 5409, 5304, 5421
5397, 5336, 5338, 5439
5316, 5192, 5314, 5354
5364, 5338, 5220, 5363
5453, 5320, 5345, 5290
5268, 5271, 5125, 5271
5151, 5316, 5154, 5196
5158, 5121, 5237, 5224
5216, 5253, 5145, 5131
5214, 5236, 5309, 5045
5321, 5299, 5289, 5197
5293, 5251, 5265, 5254
5174, 5161, 5219, 5168
5207, 5126, 5321, 5190
5148, 5148, 5233, 5157
5290, 5295, 5151, 5107
5062, 5147, 5175, 5026
5115, 5033, 5306, 5050
5076, 5236, 5027, 5131
5237, 5158, 5272, 5206
5197, 5099, 5311, 5221
5214, 5096, 5151, 5285
5225, 5137, 5147, 5186
5054, 5250, 5286, 5238
5235, 5280, 5208, 5060
5116, 5172, 5203, 5101
5161, 5209, 5149, 5228
5236, 5143, 5225, 5291
5152, 5128, 5162, 5312
5130, 5111, 5220, 5112
5155, 5093, 5197, 5283
5294, 5256, 5246, 5352
5227, 5292, 5269, 5382
5292, 5229, 5295, 5263
5340, 5321, 5300, 5180
5268, 5295, 5246, 5273
5310, 5300, 5377, 5489
5303, 5425, 5396, 5337
5405, 5343, 5423, 5467
5570, 5542, 5419, 5397
5569, 5550, 5588, 5557
5475, 5497, 5394, 5424
5344, 5348, 5375, 5321
5347, 5353, 5365, 5463
5254, 5192, 5224, 5257
5243, 5109, 5194, 5075
5198, 5115, 5195, 5033
5036, 5089, 5172, 5058
5103, 4983, 5010, 5078
4962, 5018, 4955, 4975
4871, 4983, 4998, 4982
4840, 4947, 4924, 4902
4903, 5018, 4922, 4890
4953, 4942, 5010, 5001
5017, 4975, 4969, 4875
4819, 4637, 4872, 4806
4893, 4882, 4843, 4749
4761, 4781, 4864, 4822
4813, 4894, 4716, 4752
4781, 4791, 4731, 4845
4767, 4726, 4793, 4680
4601, 4767, 4690, 4707
4733, 4724, 4688, 4650
4723, 4777, 4645, 4755
4792, 4706, 4688, 4675
4690, 4664, 4739, 4613
4687, 4760, 4679, 4610
4673, 4750, 4774, 4610
4561, 4718, 4665, 4605
4616, 4617, 4624, 4635
4489, 4731, 4570, 4606
4631, 4604, 4656, 4730
4720, 4722, 4631, 4556
4681, 4488, 4696, 4671
4669, 4604, 4664, 4553
4567, 4626, 4701, 4634
4659, 4760, 4650, 4757
4682, 4589, 4631, 4523
4590, 4634, 4588, 4671
4719, 4616, 4730, 4645
4628, 4661, 4741, 4522
4626, 4727, 4675, 4637
4745, 4652, 4705, 4663
4595, 4690, 4656, 4754
4760, 4654, 4814, 4738
4790, 4782, 4799, 4744
4680, 4738, 4839, 4807
4764, 4814, 4811, 4739
4854, 4916, 4931, 4739
4786, 4841, 4821, 4838
4828, 4856, 4884, 4870
4852, 4778, 4878, 4805
4763, 4812, 4755, 4766
4907, 4915, 4776, 4733
4807, 4822, 4845, 4735
4749, 4685, 4638, 4661
4587, 4686, 4647, 4787
4748, 4690, 4679, 4762
4650, 4712, 4848, 4783
4728, 4761, 4680, 4751
4779, 4768, 4758, 4746
4780, 4828, 4808, 4799
4801, 4866, 4773, 4692
4655, 4727, 4786, 4648
4801, 4749, 4645, 4729
4745, 4752, 4707, 4883
4810, 4761, 4790, 4793
4735, 4752, 4678, 4738
4771, 4746, 4750, 4790
4734, 4714, 4706, 4710
4723, 4857, 4747, 4665
4751, 4751, 4770, 4677
4681, 4603, 4802, 4717
4631, 4625, 4775, 4774
4696, 4604, 4805, 4707
4690, 4694, 4660, 4618
4545, 4586, 4624, 4701
4617, 4620, 4666, 4698
4654, 4646, 4610, 4653
4583, 4599, 4528, 4559
4640, 4541, 4560, 4647
4576, 4661, 4593, 4516
4604, 4510, 4466, 4513
4658, 4555, 4439, 4580
4519, 4504, 4482, 4490
4378, 4524, 4455, 4463
4531, 4481, 4365, 4360
4410, 4335, 4412, 4501
4356, 4414, 4464, 4303
4360, 4332, 4422, 4439
4383, 4434, 4324, 4320
4210, 4418, 4455, 4256
4261, 4334, 4302, 4352
4377, 4371, 4187, 4324
4284, 4201, 4290, 4170
4215, 4146, 4187, 4225
4205, 4228, 4234, 4200
4200, 4233, 4122, 4180
4211, 4173, 4147, 4298
4282, 4239, 4080, 4198
4202, 4173, 4203, 4078
4197, 4167, 4194, 4280
4218, 4210, 4181, 4128
4066, 4072, 4137, 4207
4108, 4108, 4196, 4078
4053, 4046, 4012, 4192
4041, 4012, 4088, 3907
4096, 4001, 4083, 4060
4155, 4115, 3985, 4010
4020, 4186, 4061, 4081
4032, 3930, 4046, 4082
4085, 4054, 4005, 4041
4017, 3989, 3988, 4006
3994, 3950, 3949, 3962
3933, 3936, 4019, 3909
3955, 3957, 3934, 3952
3968, 3927, 3858, 3794
3815, 3874, 3932, 3802
3930, 3969, 3924, 3988
3811, 3886, 3972, 3938
3878, 3998, 3946, 3964
3915, 3830, 3943, 3919
3888, 3947, 3824, 3867
3875, 4001, 3943, 4017
3890, 3882, 3887, 3932
3813, 3866, 3927, 3871
3916, 3861, 3919, 3920
3843, 3919, 3848, 3900
3814, 3914, 3864, 3907
3882, 3872, 3950, 3857
3811, 3791, 3831, 3794
3902, 3856, 3865, 3820
3984, 3899, 3863, 3729
3917, 3828, 3839, 3921
3871, 3892, 3838, 3736
3817, 3873, 3848, 3833
3735, 3825, 3687, 3880
3878, 3916, 3879, 3726
3828, 3898, 3782, 3759
3686, 3778, 3775, 3780
3778, 3832, 3852, 3820
3767, 3688, 3720, 3703
3774, 3715, 3635, 3715
3710, 3717, 3698, 3762
3667, 3739, 3664, 3765
3699, 3854, 3785, 3705
3690, 3645, 3644, 3667
3720, 3732, 3610, 3635
3779, 3591, 3707, 3622
3636, 3645, 3663, 3654
3728, 3734, 3737, 3579
3571, 3671, 3688, 3632
3676, 3665, 3682, 3655
3604, 3640, 3569, 3640
3603, 3633, 3739, 3627
3641, 3632, 3688, 3602
3572, 3591, 3585, 3564
3711, 3733, 3663, 3628
3586, 3599, 3628, 3609
3602, 3758, 3653, 3544
3539, 3642, 3626, 3555
3583, 3491, 3565, 3545
3636, 3679, 3489, 3576
3582, 3569, 3608, 3568
3526, 3649, 3570, 3668
3606, 3641, 3597, 3579
3550, 3486, 3700, 3591
3518, 3618, 3424, 3532
3566, 3578, 3616, 3534
3552, 3570, 3546, 3488
3515, 3496, 3634, 3494
3598, 3439, 3536, 3475
3546, 3460, 3509, 3504
3560, 3579, 3574, 3549
3477, 3463, 3610, 3506
3520, 3641, 3512, 3447
3555, 3436, 3545, 3491
3440, 3409, 3487, 3416
3482, 3392, 3453, 3374
3474, 3488, 3410, 3482
3424, 3364, 3481, 3483
3518, 3387, 3467, 3454
3562, 3453, 3417, 3515
3466, 3460, 3419, 3447
3468, 3501, 3325, 3309
3386, 3440, 3474, 3387
3277, 3375, 3460, 3511
3400, 3345, 3352, 3387
3370, 3389, 3402, 3367
3429, 3335, 3459, 3404
3367, 3421, 3393, 3376
3292, 3369, 3412, 3396
3401, 3366, 3351, 3277
3309, 3430, 3321, 3357
3333, 3395, 3326, 3370
3360, 3311, 3298, 3378
3303, 3383, 3283, 3369
3347, 3215, 3359, 3369
3282, 3360, 3356, 3397
3343, 3446, 3285, 3256
3261, 3422, 3375, 3356
3389, 3414, 3351, 3293
3286, 3313, 3217, 3391
3206, 3286, 3215, 3319
3239, 3292, 3246, 3349
3232, 3260, 3313, 3169
3291, 3342, 3325, 3290
3358, 3292, 3190, 3259
3196, 3212, 3301, 3283
3265, 3386, 3250, 3186
3338, 3226, 3245, 3256
3199, 3257, 3281, 3293
3245, 3363, 3207, 3289
3382, 3259, 3269, 3280
3285, 3257, 3274, 3311
3235, 3023, 3294, 3301
3206, 3152, 3226, 3264
3185, 3263, 3188, 3279
3263, 3285, 3231, 3283
3294, 3244, 3183, 3264
3259, 3176, 3232, 3196
3115, 3152, 3193, 3218
3211, 3165, 3289, 3171
3177, 3197, 3176, 3214
3204, 3183, 3221, 3154
3134, 3186, 3137, 3235
3221, 3178, 3267, 3206
3183, 3209, 3121, 3204
3093, 3198, 3160, 3171
3160, 3112, 3152, 3147
3101, 3177, 3157, 3193
3177, 3088, 3189, 3233
3219, 3203, 3145, 3192
3134, 3222, 3139, 3152
3181, 3300, 3171, 3170
3113, 3204, 3282, 3198
3125, 3248, 3110, 3203
3261, 3183, 3116, 3109
3292, 3131, 3202, 3169
3170, 3221, 3178, 3194
3118, 3060, 3096, 3200
3195, 3228, 3169, 3143
3129, 3089, 3151, 3135
3141, 3117, 3149, 3187
3084, 3199, 3166, 3173
3176, 3060, 3077, 3094
3257, 3111, 3132, 3144
3151, 3128, 2978, 3174
3115, 3159, 3102, 3045
3002, 3078, 3047, 3109
3009, 3134, 3154, 3071
3040, 3047, 3004, 3095
3045, 3129, 3107, 3067
3069, 3060, 3085, 3081
3115, 3080, 3104, 3118
3148, 3077, 3041, 3073
3110, 3094, 3015, 3017
3032, 3071, 3122, 3133
3083, 3107, 3028, 3012
2975, 3062, 3100, 3021
3079, 3151, 2980, 3151
3074, 2968, 3012, 3049
3044, 3079, 2922, 3157
3020, 3110, 3037, 3098
3004, 3157, 3115, 3104
3014, 3034, 2974, 3073
3097, 3090, 2983, 3095
2960, 3055, 3092, 3093
3076, 2903, 3020, 3031
3013, 2965, 3057, 3066
3049, 3073, 3048, 3024
3086, 3004, 3082, 3064
3035, 3038, 3075, 3104
3040, 2959, 2993, 3086
3043, 3006, 3033, 3022
2927, 3048, 3013, 2958
3041, 3040, 3049, 3085
2976, 3068, 3005, 3012
3000, 3003, 2993, 3089
2936, 2920, 2975, 3078
3026, 2997, 3060, 3076
3030, 3041, 3083, 3001
3004, 3093, 2905, 3024
3099, 3003, 3027, 3034
2956, 2860, 3129, 3150
3113, 3006, 2926, 3023
3003, 3005, 3064, 3085
3028, 3094, 2992, 3010
2958, 3053, 3059, 3068
3065, 3028, 3051, 3031
3055, 2977, 3081, 3026
2986, 3008, 3071, 2971
2918, 3109, 3088, 3007
3001, 3111, 3059, 3088
3030, 3030, 2990, 3103
2984, 3066, 3020, 2969
2989, 2957, 3007, 3023
3115, 3045, 2913, 2978
3059, 3025, 2964, 2986
3017, 3052, 3069, 2987
3037, 2968, 2884, 2993
2923, 2908, 2945, 2881
2949, 3072, 2881, 2914
3029, 3023, 2927, 2980
2975, 2951, 2965, 3098
2941, 2944, 3049, 3045
3015, 2924, 2945, 3033
2997, 3002, 2919, 2907
3004, 3011, 2951, 2975
2919, 2926, 2905, 2979
2998, 3062, 2947, 2941
2895, 2925, 2972, 2909
2913, 3015, 2953, 2983
2949, 2902, 2892, 2933
2900, 2915, 2923, 2866
2911, 2948, 2929, 2890
2897, 2938, 2978, 2948
2906, 2921, 2934, 2999
2894, 2901, 2925, 2983
2964, 2910, 2856, 2907
2945, 2899, 2905, 2870
2942, 2957, 2812, 2955
2860, 2916, 2898, 2926
2856, 2889, 2957, 3007
2865, 2945, 2943, 2969
2928, 2839, 2864, 2844
3015, 3035, 2871, 2975
2895, 2956, 2831, 2891
2830, 2854, 2909, 2930
2957, 2962, 2949, 2858
2968, 2947, 2980, 2873
2870, 2811, 2885, 2929
2929, 2869, 2892, 2934
2882, 3003, 2889, 2923
2862, 2895, 2918, 2887
2861, 2895, 3001, 2851
2871, 2863, 2792, 2896
2930, 2802, 2912, 2909
2957, 2948, 2855, 2858
2909, 2947, 2910, 2899
2916, 3018, 2940, 3017
2915, 2919, 2881, 2916
2878, 2827, 2954, 2917
2931, 2933, 2896, 2996
2875, 2886, 2925, 2976
2928, 2988, 2893, 2876
2965, 2855, 2834, 2942
2920, 2903, 2881, 2932
2801, 2876, 2840, 2921
3005, 2917, 2915, 2982
2934, 2934, 2827, 2836
2823, 2879, 2916, 2958
2935, 2850, 2842, 2873
2952, 2889, 2863, 2881
2956, 2967, 2849, 2912
2893, 2925, 2909, 2905
2980, 2932, 2930, 2857
2876, 2908, 2881, 2961
2917, 2900, 2912, 2833
2811, 2884, 2846, 2833
2856, 2842, 2882, 2855
2859, 2901, 2791, 2770
2869, 2833, 2838, 2745
2849, 2923, 2777, 2887
2869, 2788, 2894, 2847
2813, 2834, 2821, 2876
2845, 2912, 2754, 2768
2784, 2971, 2902, 2868
2770, 2819, 2796, 2906
2847, 2779, 2794, 2768
2835, 2861, 2837, 2874
2883, 2810, 2871, 2809
2762, 2683, 2756, 2754
2735, 2772, 2881, 2790
2766, 2788, 2769, 2832
2788, 2801, 2793, 2813
2807, 2887, 2830, 2815
2757, 2768, 2797, 2740
2801, 2822, 2872, 2837
2782, 2901, 2744, 2838
2839, 2837, 2884, 2782
2784, 2765, 2778, 2790
2763, 2859, 2810, 2769
2746, 2859, 2707, 2761
2796, 2818, 2739, 2812
2829, 2720, 2813, 2841
2867, 2722, 2855, 2792
2795, 2814, 2699, 2827
2781, 2796, 2794, 2831
2725, 2736, 2810, 2766
2763, 2813, 2931, 2773
2699, 2740, 2793, 2733
2733, 2786, 2746, 2689
2719, 2687, 2866, 2728
2781, 2708, 2754, 2752
2804, 2808, 2797, 2796
2778, 2784, 2793, 2754
2720, 2829, 2798, 2753
2788, 2762, 2791, 2779
2835
*END

*EOF
