*TYPE		=  Raw
*CLASS		=  ASCII CLASS
*SAMPLE		=   
*COMMENT	=   
*FNAME		=  blanksi_Theta_2-Theta.asc
*DATE		=  01-Jun-26 14:58

*GROUP_COUNT	=  1
*GONIO		=  SmartLab, 0.000000
*ATTACHMENT	=  Standard Z stage
*ASC		=  0, 0, 0.000000, 0.000000
*I_MONOCHRO	=  Soller_slit_5.0deg, 0.000000
*FILTER		=  Cu_K-beta
*C_MONOCHRO	=  None, 0.000000
*SLIT_NAME	=  0, Incident slit
*SLIT_NAME	=  1, Receiving slit # 1
*SLIT_NAME	=  2, Receiving slit # 2
*COUNTER	=  D/teX Ultra, 0
*POS_FORMAT	=  0
*SCAN_AXIS	=  2theta/theta
*MEAS_MODE	=  Continuous Scanning
*TARGET		=  29
*XRAY_CHAR	=  K-ALPHA
*WAVE_LENGTH1	=  1.54059
*WAVE_LENGTH2	=  1.54441
*THICKNESS	=  0, 0.000000
*MU		=  0, 0.000000
*SCAN_MODE	=  2theta/theta
*SPEED_DIM	=  sec./step
*XUNIT		=  deg.
*YUNIT		=  counts
*SCALE_MODE	=  1
*REP_COUNT	=  0
*SE_COUNT	=  0
*STD_MATERIAL	=  Unknown, Unknown, 0.000000, 0.000000, 0.000000, 0.000000, 0.000000, 0.000000
*LATT_CONS	=  0, Unknown, Unknown, 0.000000, 0.000000, 0.000000, 0.000000, 0.000000, 0.000000
*SEC_COUNT	=  1
*TSPEC_SIZE	=  0
*EXTRA_SIZE	=  0
*MEMO		=   

*BEGIN
*GROUP		=  0
*START		=  10
*STOP		=  80
*STEP		=  0.02
*OFFSET		=  0.000000
*SPEED		=  0.0342857
*SLIT_SPEC	=  0, 2/3deg, 2, 0.000000
*SLIT_SPEC	=  1, 20.000mm, 20, 0.000000
*SLIT_SPEC	=  2, 20.000mm, 20, 0.000000
*KV		=  40
*MA		=  150
*LOW		=  0.000000
*HIGH		=  0.000000
*CTEMPER	=  0, 0.000000
*CTEMPER	=  1, 0.000000
*CTEMPER	=  2, 0.000000
*PAREX		=  0, 0.000000
*PAREX		=  1, 0.000000
*PAREX		=  2, 0.000000
*PAREX		=  3, 0.000000
*PAREX		=  4, 0.000000
*PAREX		=  5, 0.000000
*PAREX		=  6, 0.000000
*PAREX		=  7, 0.000000
*PAREX		=  8, 0.000000
*PAREX		=  9, 0.000000
*PAREX		=  10, 0.000000
*PAREX		=  11, 0.000000
*PAREX		=  12, 0.000000
*PAREX		=  13, 0.000000
*PAREX		=  14, 0.000000
*PAREX		=  15, 0.000000
*FULL_SCALE	=  57330
*INDEX		=  0, 0, 0
*COUNT		=  3501
1597, 1552, 1529, 1638
1635, 1621, 1623, 1536
1514, 1549, 1547, 1593
1544, 1606, 1587, 1602
1631, 1535, 1619, 1508
1555, 1519, 1517, 1467
1493, 1554, 1523, 1541
1501, 1547, 1521, 1483
1449, 1442, 1506, 1479
1491, 1423, 1492, 1459
1508, 1498, 1480, 1472
1437, 1469, 1396, 1406
1415, 1380, 1431, 1475
1545, 1473, 1453, 1411
1468, 1320, 1369, 1446
1359, 1382, 1450, 1393
1308, 1433, 1335, 1367
1305, 1392, 1373, 1461
1402, 1340, 1364, 1342
1297, 1331, 1319, 1360
1337, 1376, 1362, 1330
1278, 1324, 1285, 1370
1365, 1288, 1301, 1355
1297, 1306, 1330, 1369
1279, 1264, 1269, 1320
1277, 1297, 1351, 1313
1316, 1267, 1240, 1258
1292, 1272, 1221, 1259
1236, 1278, 1255, 1208
1161, 1242, 1202, 1191
1224, 1196, 1205, 1219
1229, 1221, 1170, 1167
1151, 1174, 1172, 1171
1192, 1089, 1221, 1168
1117, 1164, 1117, 1174
1132, 1157, 1085, 1077
1142, 1139, 1130, 1156
1099, 1026, 1119, 1137
1093, 1066, 1072, 1084
1114, 1108, 1075, 1039
1097, 1034, 1042, 1083
1058, 1089, 1055, 1085
1016, 1042, 978, 1049
959, 993, 1037, 1018
981, 968, 987, 1049
1025, 1030, 1002, 990
960, 970, 936, 1015
936, 977, 1055, 965
923, 965, 962, 965
974, 942, 953, 961
935, 961, 941, 954
929, 938, 877, 942
927, 925, 928, 873
975, 924, 938, 942
941, 904, 907, 947
868, 870, 874, 871
884, 835, 833, 799
861, 858, 829, 805
826, 796, 855, 780
775, 798, 781, 809
788, 798, 745, 814
771, 736, 748, 805
790, 792, 738, 732
769, 747, 754, 749
798, 774, 750, 782
701, 757, 730, 658
711, 740, 738, 745
740, 745, 725, 708
747, 737, 719, 707
743, 696, 691, 690
705, 721, 687, 716
701, 691, 670, 714
708, 708, 673, 708
690, 672, 684, 666
677, 688, 608, 638
706, 668, 642, 660
637, 652, 597, 666
658, 677, 640, 672
633, 607, 653, 663
622, 643, 640, 637
654, 628, 624, 648
626, 591, 648, 630
576, 588, 597, 641
601, 573, 614, 595
593, 577, 591, 613
583, 622, 612, 601
629, 623, 619, 562
590, 565, 575, 573
544, 642, 615, 591
562, 608, 560, 597
597, 510, 549, 594
558, 535, 570, 534
517, 585, 601, 560
558, 589, 554, 560
602, 567, 592, 575
549, 548, 536, 555
532, 589, 549, 526
541, 533, 584, 557
499, 564, 570, 543
570, 530, 507, 558
585, 549, 544, 531
569, 522, 567, 566
545, 511, 541, 506
554, 547, 477, 541
477, 550, 540, 509
515, 532, 513, 504
510, 507, 509, 509
470, 538, 500, 495
517, 493, 509, 497
498, 516, 526, 487
489, 499, 517, 537
481, 526, 536, 497
545, 508, 484, 512
476, 475, 526, 497
498, 442, 509, 453
488, 493, 486, 462
535, 467, 488, 503
493, 476, 444, 495
499, 509, 486, 477
464, 479, 504, 498
456, 453, 436, 468
472, 476, 496, 456
491, 440, 444, 445
435, 463, 443, 464
450, 466, 443, 486
461, 480, 429, 437
445, 501, 485, 466
461, 461, 472, 452
472, 468, 481, 465
471, 478, 477, 438
449, 429, 459, 433
463, 483, 461, 468
453, 474, 474, 472
476, 483, 445, 490
479, 424, 450, 470
439, 444, 434, 458
417, 436, 458, 464
441, 429, 422, 425
452, 411, 437, 433
442, 416, 405, 479
432, 403, 411, 395
422, 408, 450, 430
429, 406, 412, 424
452, 402, 403, 402
362, 415, 422, 424
415, 426, 420, 417
395, 406, 408, 413
389, 417, 407, 405
422, 408, 399, 430
398, 365, 427, 401
399, 396, 418, 405
384, 387, 391, 392
368, 433, 394, 381
398, 411, 407, 396
388, 399, 396, 398
394, 428, 391, 395
413, 397, 395, 399
421, 391, 406, 386
389, 395, 404, 396
411, 384, 384, 382
380, 446, 349, 371
385, 404, 353, 380
375, 375, 374, 357
365, 391, 386, 391
361, 360, 347, 370
377, 367, 369, 398
347, 369, 376, 403
383, 388, 353, 356
389, 413, 342, 368
351, 354, 392, 366
367, 364, 370, 333
374, 384, 361, 361
384, 382, 371, 374
364, 362, 352, 342
398, 369, 347, 360
355, 341, 381, 368
353, 382, 383, 348
358, 354, 342, 375
377, 331, 338, 335
367, 353, 345, 332
334, 358, 337, 365
321, 365, 324, 361
359, 356, 379, 358
364, 362, 370, 348
391, 325, 356, 339
354, 314, 358, 328
309, 347, 339, 353
318, 327, 330, 323
313, 316, 347, 328
326, 352, 299, 336
307, 313, 327, 323
297, 318, 311, 348
340, 348, 305, 358
318, 347, 301, 319
327, 326, 304, 363
305, 312, 335, 372
352, 338, 340, 313
322, 319, 307, 336
302, 330, 335, 310
291, 336, 281, 308
316, 336, 311, 335
290, 328, 326, 316
335, 342, 340, 322
309, 305, 305, 331
331, 292, 326, 348
352, 338, 309, 287
332, 313, 290, 315
294, 299, 306, 293
310, 322, 288, 299
284, 296, 315, 329
268, 285, 309, 300
318, 299, 311, 307
319, 314, 338, 304
287, 300, 313, 302
288, 298, 304, 323
316, 296, 314, 325
267, 327, 300, 297
328, 312, 290, 302
304, 314, 273, 291
301, 290, 283, 301
299, 293, 276, 308
309, 275, 288, 305
283, 280, 298, 307
315, 281, 283, 294
325, 265, 326, 307
295, 292, 306, 298
313, 308, 303, 310
282, 279, 272, 291
292, 272, 305, 313
301, 305, 276, 297
289, 285, 277, 304
303, 271, 286, 280
266, 244, 307, 310
277, 270, 269, 273
268, 268, 283, 268
284, 309, 269, 270
279, 268, 284, 306
280, 253, 283, 281
276, 267, 269, 252
261, 260, 259, 262
288, 319, 261, 285
252, 260, 277, 272
271, 266, 266, 243
253, 240, 276, 283
268, 259, 282, 280
269, 267, 263, 277
288, 278, 274, 260
256, 266, 252, 299
242, 247, 281, 264
283, 258, 265, 257
268, 257, 267, 263
265, 276, 264, 265
231, 253, 223, 291
212, 282, 245, 274
227, 281, 251, 259
272, 255, 266, 230
260, 269, 248, 243
255, 267, 259, 240
239, 250, 243, 240
285, 249, 243, 231
252, 251, 245, 273
255, 246, 269, 238
267, 234, 218, 277
239, 246, 248, 232
250, 242, 260, 245
232, 237, 233, 234
242, 257, 244, 262
270, 243, 245, 225
262, 256, 248, 204
221, 232, 245, 225
239, 268, 243, 237
246, 270, 249, 247
247, 259, 250, 225
236, 256, 235, 233
234, 277, 248, 228
232, 222, 235, 236
240, 217, 228, 252
230, 217, 243, 260
238, 234, 227, 241
229, 248, 249, 262
234, 251, 215, 221
239, 204, 213, 238
217, 222, 234, 227
235, 225, 252, 222
215, 222, 220, 226
241, 222, 237, 248
254, 209, 227, 213
206, 234, 219, 234
243, 242, 226, 223
218, 228, 252, 220
204, 245, 233, 206
197, 204, 232, 232
251, 242, 233, 231
213, 225, 231, 204
221, 216, 224, 219
237, 221, 225, 219
201, 204, 241, 224
230, 234, 224, 230
222, 205, 219, 243
205, 245, 232, 201
216, 224, 225, 228
215, 203, 237, 231
193, 239, 225, 227
238, 207, 192, 217
231, 219, 226, 205
213, 197, 210, 231
233, 221, 219, 202
225, 212, 221, 205
218, 215, 223, 236
190, 201, 223, 224
204, 230, 228, 223
217, 214, 199, 217
217, 211, 225, 189
234, 206, 219, 206
206, 211, 197, 215
217, 238, 207, 206
219, 201, 211, 219
215, 180, 181, 211
224, 219, 207, 193
198, 209, 187, 187
202, 232, 209, 213
199, 185, 209, 169
211, 198, 213, 212
213, 203, 183, 207
212, 215, 211, 201
224, 207, 197, 209
235, 207, 202, 213
194, 191, 196, 207
228, 181, 208, 203
193, 203, 199, 188
204, 196, 194, 239
210, 196, 203, 194
189, 169, 185, 176
204, 203, 205, 205
221, 215, 210, 195
203, 194, 177, 201
196, 206, 181, 229
214, 210, 202, 207
179, 180, 198, 189
185, 207, 195, 209
219, 175, 203, 211
209, 193, 204, 205
190, 170, 209, 185
210, 191, 194, 194
200, 210, 205, 179
195, 201, 198, 184
198, 228, 174, 203
229, 206, 194, 200
200, 185, 186, 201
205, 192, 193, 191
185, 204, 200, 188
206, 202, 206, 189
213, 203, 181, 201
185, 187, 197, 201
190, 191, 175, 204
189, 177, 182, 194
189, 187, 185, 195
194, 217, 194, 198
206, 201, 195, 183
183, 193, 171, 194
182, 175, 173, 182
199, 209, 204, 209
209, 182, 177, 202
205, 199, 196, 185
197, 193, 212, 189
185, 179, 195, 193
175, 202, 186, 203
182, 197, 177, 172
198, 188, 190, 182
198, 170, 175, 194
185, 221, 181, 207
206, 197, 193, 189
185, 183, 182, 179
201, 191, 167, 182
166, 173, 192, 186
199, 186, 176, 178
216, 173, 198, 196
178, 180, 181, 196
173, 180, 192, 183
214, 173, 194, 191
180, 180, 192, 185
186, 185, 204, 189
182, 179, 182, 207
189, 195, 159, 190
156, 188, 199, 167
175, 208, 203, 182
192, 185, 174, 174
177, 184, 226, 189
173, 168, 178, 199
195, 202, 187, 174
193, 183, 216, 202
207, 206, 173, 180
186, 183, 189, 177
159, 193, 197, 175
174, 189, 193, 190
174, 221, 185, 181
208, 192, 196, 182
188, 162, 173, 187
184, 186, 191, 169
166, 185, 185, 191
205, 184, 196, 181
170, 171, 180, 157
169, 187, 189, 176
174, 215, 189, 189
185, 170, 212, 183
184, 187, 177, 185
173, 165, 205, 179
186, 168, 180, 190
173, 174, 194, 163
180, 188, 180, 192
165, 173, 184, 177
182, 200, 187, 175
180, 173, 174, 172
194, 170, 153, 178
188, 185, 202, 180
187, 179, 209, 184
156, 197, 193, 181
188, 176, 177, 180
155, 178, 202, 168
182, 171, 162, 177
177, 184, 193, 192
176, 167, 183, 168
175, 212, 194, 165
207, 181, 166, 191
174, 154, 183, 184
190, 177, 184, 180
159, 175, 178, 181
181, 167, 181, 170
195, 171, 192, 175
171, 155, 165, 186
173, 184, 188, 191
216, 184, 171, 185
166, 164, 190, 182
161, 157, 170, 183
178, 169, 182, 180
189, 190, 195, 194
185, 158, 194, 168
187, 178, 185, 196
188, 201, 175, 193
172, 185, 191, 175
190, 159, 194, 185
179, 179, 169, 154
148, 204, 183, 154
161, 171, 173, 166
171, 171, 200, 184
199, 171, 156, 161
160, 181, 197, 193
180, 164, 205, 191
167, 174, 205, 191
206, 184, 195, 176
168, 172, 185, 181
175, 192, 168, 190
181, 189, 179, 152
199, 174, 176, 180
188, 168, 206, 199
175, 195, 187, 200
186, 193, 192, 190
189, 169, 169, 180
187, 182, 202, 176
175, 177, 189, 179
179, 202, 177, 185
215, 184, 187, 201
174, 207, 167, 190
184, 212, 175, 196
198, 183, 216, 182
192, 184, 186, 191
173, 179, 168, 181
184, 200, 169, 195
190, 218, 184, 170
188, 220, 208, 197
180, 163, 222, 191
169, 189, 184, 194
196, 215, 210, 177
171, 201, 192, 184
195, 171, 188, 164
177, 202, 196, 175
186, 199, 178, 195
181, 172, 206, 214
183, 193, 202, 218
183, 182, 198, 217
200, 204, 210, 211
211, 195, 193, 207
200, 183, 213, 198
219, 178, 186, 190
181, 178, 213, 201
191, 197, 217, 196
200, 199, 184, 200
181, 192, 194, 204
193, 208, 211, 187
179, 190, 211, 185
200, 205, 194, 201
206, 194, 182, 201
234, 222, 208, 213
205, 209, 206, 212
221, 187, 177, 200
194, 214, 189, 183
190, 188, 219, 197
209, 203, 203, 211
189, 199, 215, 215
208, 170, 199, 208
217, 214, 193, 195
221, 216, 174, 185
204, 209, 223, 220
198, 195, 208, 181
176, 214, 233, 226
208, 235, 238, 213
229, 206, 232, 219
188, 238, 209, 212
214, 200, 231, 219
231, 211, 197, 219
200, 211, 231, 195
220, 196, 225, 237
220, 205, 191, 213
236, 223, 197, 162
192, 221, 227, 226
226, 234, 204, 212
198, 218, 227, 184
209, 220, 223, 215
217, 214, 231, 211
241, 238, 245, 231
224, 241, 221, 225
210, 232, 229, 226
215, 194, 231, 214
214, 211, 259, 255
250, 219, 233, 216
232, 233, 203, 213
244, 226, 226, 204
229, 240, 230, 207
227, 215, 229, 248
209, 208, 246, 234
244, 210, 253, 231
235, 223, 219, 242
228, 225, 218, 212
217, 202, 227, 239
235, 240, 228, 227
213, 258, 206, 242
220, 211, 217, 230
219, 247, 233, 209
236, 217, 221, 222
216, 210, 233, 223
202, 228, 233, 208
204, 231, 232, 204
213, 205, 245, 223
217, 193, 224, 250
260, 232, 215, 253
218, 205, 228, 217
246, 231, 215, 196
215, 217, 238, 230
232, 231, 226, 205
233, 222, 224, 227
214, 209, 210, 204
204, 204, 227, 231
226, 198, 216, 244
215, 232, 219, 223
221, 228, 203, 223
220, 203, 217, 212
221, 217, 221, 202
207, 199, 221, 199
235, 206, 239, 216
224, 249, 201, 196
203, 196, 208, 203
221, 224, 200, 220
223, 208, 195, 181
233, 213, 197, 195
200, 214, 221, 206
214, 205, 194, 217
205, 203, 193, 200
184, 207, 215, 164
188, 210, 217, 176
190, 220, 217, 199
193, 224, 192, 230
205, 198, 213, 213
197, 188, 203, 218
198, 234, 210, 216
211, 197, 198, 176
198, 201, 209, 195
187, 177, 201, 189
206, 200, 185, 203
165, 169, 171, 171
188, 212, 198, 190
181, 205, 177, 171
182, 199, 178, 201
190, 204, 194, 200
186, 171, 186, 206
217, 199, 175, 196
202, 156, 174, 179
188, 170, 196, 189
187, 201, 171, 177
191, 178, 177, 168
176, 179, 196, 208
201, 203, 187, 146
159, 167, 175, 188
203, 188, 174, 200
179, 175, 169, 189
182, 184, 171, 171
164, 175, 172, 198
181, 161, 180, 200
203, 189, 187, 176
157, 165, 178, 151
159, 171, 183, 168
182, 164, 167, 148
176, 199, 175, 178
168, 168, 177, 164
162, 187, 171, 187
173, 164, 182, 170
165, 173, 157, 173
186, 172, 166, 192
155, 162, 163, 169
170, 169, 160, 152
151, 184, 183, 171
176, 168, 165, 151
185, 159, 159, 150
162, 150, 151, 159
167, 158, 182, 173
156, 151, 156, 168
160, 162, 146, 168
166, 178, 159, 168
156, 160, 156, 147
158, 159, 147, 170
168, 171, 140, 197
167, 153, 158, 175
182, 174, 156, 159
162, 182, 157, 149
134, 146, 147, 140
157, 155, 155, 165
152, 146, 158, 168
163, 157, 140, 110
147, 161, 146, 168
171, 134, 168, 159
179, 155, 166, 163
152, 142, 137, 153
158, 141, 140, 152
155, 167, 145, 139
178, 151, 137, 144
151, 145, 175, 169
144, 158, 142, 168
142, 150, 149, 168
161, 149, 136, 160
151, 141, 147, 158
129, 145, 135, 133
170, 142, 153, 143
156, 155, 142, 137
137, 167, 183, 153
151, 150, 124, 152
137, 177, 146, 138
153, 140, 136, 145
134, 135, 144, 163
147, 146, 154, 156
166, 167, 137, 105
145, 122, 154, 157
152, 147, 145, 163
155, 149, 145, 121
138, 155, 159, 134
160, 138, 164, 132
149, 133, 182, 129
132, 136, 144, 139
131, 140, 154, 110
139, 156, 148, 141
136, 148, 124, 134
130, 124, 134, 147
151, 132, 123, 133
138, 127, 154, 131
137, 149, 120, 139
156, 155, 123, 152
134, 123, 145, 140
115, 141, 159, 136
135, 153, 132, 146
152, 119, 126, 128
132, 137, 124, 142
135, 145, 120, 117
141, 166, 166, 144
138, 140, 146, 135
127, 128, 146, 130
153, 150, 130, 140
129, 128, 121, 136
130, 133, 131, 116
124, 116, 140, 139
130, 129, 126, 127
160, 143, 155, 117
137, 138, 127, 135
123, 149, 113, 130
133, 131, 149, 147
126, 131, 142, 133
119, 115, 118, 132
148, 135, 125, 110
126, 127, 146, 134
143, 147, 130, 128
121, 140, 131, 131
116, 144, 149, 145
148, 125, 118, 124
129, 133, 128, 132
114, 142, 118, 158
135, 140, 137, 131
137, 145, 137, 124
110, 130, 149, 112
122, 104, 126, 132
131, 124, 142, 141
138, 122, 117, 113
129, 127, 119, 113
123, 122, 127, 132
112, 128, 141, 150
120, 129, 132, 137
129, 118, 129, 133
131, 139, 112, 126
118, 136, 128, 121
118, 146, 132, 136
139, 114, 109, 133
143, 112, 132, 122
120, 129, 146, 124
134, 128, 128, 128
117, 128, 118, 122
124, 131, 111, 118
144, 133, 133, 135
150, 130, 118, 135
113, 133, 134, 129
122, 114, 127, 116
127, 133, 135, 127
125, 115, 123, 116
128, 116, 126, 112
133, 136, 139, 122
112, 118, 147, 138
111, 120, 105, 141
137, 123, 109, 131
136, 122, 134, 114
117, 138, 125, 125
108, 120, 128, 136
148, 117, 130, 119
114, 123, 129, 100
128, 121, 119, 124
111, 126, 134, 154
97, 115, 132, 109
120, 133, 121, 133
117, 126, 121, 123
138, 112, 120, 126
134, 129, 136, 123
114, 113, 133, 150
121, 116, 125, 125
121, 106, 138, 124
139, 125, 123, 131
129, 143, 114, 118
133, 141, 125, 127
110, 113, 140, 135
113, 126, 115, 108
128, 116, 132, 131
118, 94, 115, 125
126, 115, 117, 106
125, 117, 130, 127
129, 114, 115, 105
121, 137, 118, 133
113, 139, 126, 131
122, 139, 132, 129
133, 117, 129, 115
126, 129, 122, 104
123, 125, 117, 116
123, 111, 127, 133
130, 111, 117, 126
113, 143, 140, 127
120, 123, 123, 120
111, 125, 131, 128
133, 116, 114, 109
118, 124, 122, 119
139, 109, 139, 116
129, 122, 123, 123
127, 133, 121, 139
136, 124, 112, 130
116, 125, 127, 112
125, 132, 135, 126
108, 93, 91, 103
113, 116, 145, 131
117, 124, 115, 125
130, 108, 131, 122
128, 123, 136, 126
118, 138, 139, 119
113, 109, 130, 98
126, 128, 126, 117
148, 108, 96, 140
123, 133, 124, 132
130, 120, 112, 116
112, 109, 137, 109
118, 134, 139, 108
108, 100, 107, 130
126, 138, 120, 126
135, 126, 142, 115
129, 131, 134, 126
124, 132, 115, 121
124, 115, 121, 108
115, 112, 130, 110
120, 111, 116, 121
102, 129, 135, 139
145, 100, 123, 101
118, 117, 133, 115
129, 119, 121, 132
140, 146, 121, 126
140, 138, 147, 119
121, 126, 115, 131
123, 119, 111, 110
113, 121, 131, 118
115, 114, 129, 106
108, 134, 154, 133
122, 133, 118, 137
122, 120, 137, 111
146, 122, 124, 117
104, 126, 120, 111
117, 119, 136, 109
118, 115, 125, 137
107, 141, 138, 130
114, 136, 122, 126
136, 126, 123, 111
119, 116, 129, 124
112, 122, 124, 121
110, 133, 126, 123
132, 112, 122, 143
124, 132, 123, 131
115, 127, 158, 95
125, 137, 137, 139
97, 143, 107, 123
135, 114, 102, 155
127, 109, 116, 129
130, 144, 118, 125
118, 144, 152, 143
137, 123, 143, 116
103, 124, 134, 122
133, 116, 104, 131
123, 127, 124, 131
135, 110, 118, 132
128, 139, 133, 119
129, 128, 121, 138
125, 118, 145, 119
120, 130, 135, 139
152, 142, 99, 131
124, 127, 126, 133
134, 114, 100, 148
146, 145, 137, 132
116, 158, 129, 128
141, 126, 105, 114
118, 117, 134, 156
111, 136, 127, 139
132, 132, 129, 138
136, 123, 149, 130
138, 118, 119, 123
116, 119, 121, 131
135, 124, 134, 136
136, 144, 119, 121
148, 150, 144, 108
135, 130, 123, 120
109, 106, 134, 147
160, 129, 126, 152
140, 139, 149, 129
133, 126, 129, 139
133, 130, 149, 131
134, 143, 138, 144
152, 121, 129, 147
151, 144, 139, 118
137, 164, 151, 145
141, 133, 159, 139
137, 134, 148, 147
147, 129, 138, 129
123, 159, 163, 152
118, 157, 141, 142
147, 160, 135, 140
131, 145, 145, 140
142, 154, 125, 120
151, 134, 149, 153
154, 130, 139, 149
151, 131, 163, 151
144, 147, 141, 151
152, 136, 133, 132
145, 156, 130, 135
110, 154, 147, 151
140, 139, 143, 133
144, 141, 153, 145
129, 138, 165, 172
152, 132, 155, 165
156, 145, 161, 144
127, 138, 154, 149
136
*END

*EOF
