*RAS_DATA_START
*RAS_HEADER_START
*DISP_FMT_X "%.2f"
*DISP_FMT_Y "%.0f"
*DISP_FULLSCALE "57330.0000000000"
*DISP_LINE_COLOR "255.0000000000"
*DISP_LINE_STYLE "0.0000000000"
*DISP_LINE_WIDTH "0.2500000000"
*DISP_NOTE "Collected Data-1"
*DISP_OFFSET_Y "0.0000000000"
*DISP_PEAKSEARCH_UNIT_Y "cps"
*DISP_RANGE_BOTTOM "0.0000000000"
*DISP_RANGE_LEFT "10.0000000000"
*DISP_RANGE_LOGCUTOFF "0.0100000000"
*DISP_RANGE_RIGHT "80.0000000000"
*DISP_RANGE_TOP "57330.0000000000"
*DISP_SCALE_MODE_Y "0.0000000000"
*DISP_TAB_NAME "Theta/2-Theta"
*DISP_TITLE_Y "Intensity"
*DISP_UNIT_Y "cps"
*DISP_WINDOW_NAME "MSG_MACROENGINE"
*FILE_COMMENT " "
*FILE_MD5 ""
*FILE_MEMO " "
*FILE_OPERATOR "administrator"
*FILE_SAMPLE " "
*FILE_TYPE "RAS_RAW"
*FILE_USERGROUP "System Manager"
*FILE_VERSION "1.0000000000"
*HW_ATTACHMENT_ID "ATT0025"
*HW_ATTACHMENT_NAME "標準|Standard"
*HW_COUNTER_ID-0 "CUT0025"
*HW_COUNTER_ID-1 "CUT0020"
*HW_COUNTER_ID-2 "CUT0020"
*HW_COUNTER_ID-3 "CSL0021"
*HW_COUNTER_ID-4 "CMC0021"
*HW_COUNTER_NAME-0 "D/teX Ultra|D/teX Ultra"
*HW_COUNTER_NAME-1 "None|None"
*HW_COUNTER_NAME-2 "None|None"
*HW_COUNTER_NAME-3 "BBM|BBM"
*HW_COUNTER_NAME-4 "検出器モノクロメータ|Detector monochromator"
*HW_COUNTER_SELECT_NAME "D/teX Ultra|D/teX Ultra"
*HW_GONIOMETER_ID "GON0023"
*HW_GONIOMETER_NAME "SmartLab|SmartLab"
*HW_GONIOMETER_RADIUS-0 "90.0"
*HW_GONIOMETER_RADIUS-1 "114.0"
*HW_GONIOMETER_RADIUS-2 "190.0"
*HW_GONIOMETER_RADIUS-3 "300.0"
*HW_GONIOMETER_RADIUS-4 "187.0"
*HW_GONIOMETER_RADIUS-5 "300.0"
*HW_GONIOMETER_RADIUS-6 "113.0"
*HW_GONIOMETER_RADIUS-7 "331.0"
*HW_I_OPT_ID-0 "CBO0021"
*HW_I_OPT_ID-1 "ICR0023"
*HW_I_OPT_ID-2 "ISL0021"
*HW_I_OPT_ID-3 "ISO0021"
*HW_I_OPT_ID-4 "IAD0021"
*HW_I_OPT_ID-5 "IPR0001"
*HW_I_OPT_NAME-0 "CBOユニット|CBO unit"
*HW_I_OPT_NAME-1 "標準入射光学ユニット|Standard incident optical unit"
*HW_I_OPT_NAME-2 "標準入射スリットボックス|Standard incident slit box"
*HW_I_OPT_NAME-3 "入射平行スリット|Incident parallel slit"
*HW_I_OPT_NAME-4 "長手制限スリット|Length limiting slit"
*HW_I_OPT_NAME-5 "None|None"
*HW_R_ATTENUATER_AUTOMODE "0"
*HW_R_OPT_ID-0 "RSS0021"
*HW_R_OPT_ID-1 "RCR0023"
*HW_R_OPT_ID-2 "RSO0021"
*HW_R_OPT_ID-3 "RRS0021"
*HW_R_OPT_ID-4 "ATN0021"
*HW_R_OPT_ID-5 "RFL0021"
*HW_R_OPT_ID-6 "RAD0021"
*HW_R_OPT_NAME-0 "標準受光スリットボックス1|Standard receiving slit box # 1"
*HW_R_OPT_NAME-1 "標準受光光学ユニット1|Standard receiving unit # 1"
*HW_R_OPT_NAME-2 "標準受光光学ユニット2|Standard receiving optical unit # 2"
*HW_R_OPT_NAME-3 "標準受光スリットボックス2|Standard receiving slit box # 2"
*HW_R_OPT_NAME-4 "標準アッテネータ|Standard Attenuator"
*HW_R_OPT_NAME-5 "Cu Kβ|Cu K-beta"
*HW_R_OPT_NAME-6 "調整用受光スリット|Alignment receiving slit"
*HW_SAMPLE_HOLDER_ID "SMP0023"
*HW_SAMPLE_HOLDER_NAME "標準Zステージ|Standard Z stage"
*HW_XG_CURRENT_MAX "200"
*HW_XG_CURRENT_MIN "10"
*HW_XG_CURRENT_RESOLUTION "2"
*HW_XG_CURRENT_UNIT "mA"
*HW_XG_FOCUS ""
*HW_XG_FOCUS_TYPE "Normal"
*HW_XG_ID ""
*HW_XG_NAME "9kW 開放管(45kV 200mA ID:1700)|9kW Rotating anode(45kV 200mA ID:1700)"
*HW_XG_TARGET_ATOMIC_NUMBER "29.0000000000"
*HW_XG_TARGET_NAME "Cu"
*HW_XG_TYPE "Rota"
*HW_XG_VOLTAGE_MAX "45"
*HW_XG_VOLTAGE_MIN "20"
*HW_XG_VOLTAGE_RESOLUTION "2"
*HW_XG_VOLTAGE_UNIT "kV"
*HW_XG_WATT_MAX "9"
*HW_XG_WATT_UNIT "kW"
*HW_XG_WAVE_LENGTH_ALPHA1 "1.540593"
*HW_XG_WAVE_LENGTH_ALPHA2 "1.544414"
*HW_XG_WAVE_LENGTH_BETA "1.392250"
*MEAS_COND_AXIS_NAME-0 "Theta/2-Theta"
*MEAS_COND_AXIS_NAME-1 "2-Theta"
*MEAS_COND_AXIS_NAME-2 "Omega"
*MEAS_COND_AXIS_NAME-3 "Z"
*MEAS_COND_AXIS_NAME-4 "2-Theta/Omega"
*MEAS_COND_AXIS_NAME-5 "Theta_s"
*MEAS_COND_AXIS_NAME-6 "Theta_d"
*MEAS_COND_AXIS_NAME-7 "Ts"
*MEAS_COND_AXIS_NAME-8 "CBO selection slit"
*MEAS_COND_AXIS_NAME-9 "M"
*MEAS_COND_AXIS_NAME-10 "Incident parallel slit"
*MEAS_COND_AXIS_NAME-11 "Incident slit"
*MEAS_COND_AXIS_NAME-12 ""
*MEAS_COND_AXIS_NAME-13 "Zs"
*MEAS_COND_AXIS_NAME-14 "Incident monochromator"
*MEAS_COND_AXIS_NAME-15 "Length limiting slit"
*MEAS_COND_AXIS_NAME-16 "Center slit"
*MEAS_COND_AXIS_NAME-17 "Filter"
*MEAS_COND_AXIS_NAME-18 "Receiving slit # 1"
*MEAS_COND_AXIS_NAME-19 "Receiving slit # 2"
*MEAS_COND_AXIS_NAME-20 "Receiving optical device"
*MEAS_COND_AXIS_NAME-21 "Receiving parallel slit"
*MEAS_COND_AXIS_NAME-22 "Alignment receiving slit"
*MEAS_COND_AXIS_NAME-23 ""
*MEAS_COND_AXIS_NAME-24 ""
*MEAS_COND_AXIS_NAME-25 "Zd"
*MEAS_COND_AXIS_NAME-26 "Attenuator"
*MEAS_COND_AXIS_NAME-27 "Diffracted beam monochromator"
*MEAS_COND_AXIS_NAME-28 "Monochromator slit"
*MEAS_COND_AXIS_NAME-29 "Primary beam"
*MEAS_COND_AXIS_NAME-30 "PHA"
*MEAS_COND_AXIS_NAME_INTERNAL-0 "TwoThetaTheta"
*MEAS_COND_AXIS_NAME_INTERNAL-1 "TwoTheta"
*MEAS_COND_AXIS_NAME_INTERNAL-2 "Omega"
*MEAS_COND_AXIS_NAME_INTERNAL-3 "Z"
*MEAS_COND_AXIS_NAME_INTERNAL-4 "TwoThetaOmega"
*MEAS_COND_AXIS_NAME_INTERNAL-5 "ThetaS"
*MEAS_COND_AXIS_NAME_INTERNAL-6 "ThetaD"
*MEAS_COND_AXIS_NAME_INTERNAL-7 "Ts"
*MEAS_COND_AXIS_NAME_INTERNAL-8 "CBO"
*MEAS_COND_AXIS_NAME_INTERNAL-9 "CBO-M"
*MEAS_COND_AXIS_NAME_INTERNAL-10 "IncidentSollerSlit"
*MEAS_COND_AXIS_NAME_INTERNAL-11 "IncidentSlitBox"
*MEAS_COND_AXIS_NAME_INTERNAL-12 "IncidentSlitBox-_Axis"
*MEAS_COND_AXIS_NAME_INTERNAL-13 "Zs"
*MEAS_COND_AXIS_NAME_INTERNAL-14 "IncidentMonochromator"
*MEAS_COND_AXIS_NAME_INTERNAL-15 "IncidentAxdSlit"
*MEAS_COND_AXIS_NAME_INTERNAL-16 "CenterSlit"
*MEAS_COND_AXIS_NAME_INTERNAL-17 "Filter"
*MEAS_COND_AXIS_NAME_INTERNAL-18 "ReceivingSlitBox1"
*MEAS_COND_AXIS_NAME_INTERNAL-19 "ReceivingSlitBox2"
*MEAS_COND_AXIS_NAME_INTERNAL-20 "ReceivingOptics"
*MEAS_COND_AXIS_NAME_INTERNAL-21 "ReceivingSollerSlit"
*MEAS_COND_AXIS_NAME_INTERNAL-22 "ReceivingAxdSlit"
*MEAS_COND_AXIS_NAME_INTERNAL-23 "ReceivingSlitBox1-_Axis"
*MEAS_COND_AXIS_NAME_INTERNAL-24 "ReceivingSlitBox2-_Axis"
*MEAS_COND_AXIS_NAME_INTERNAL-25 "ReceivingSlitBox2-Zd"
*MEAS_COND_AXIS_NAME_INTERNAL-26 "Attenuator"
*MEAS_COND_AXIS_NAME_INTERNAL-27 "CounterMonochromator"
*MEAS_COND_AXIS_NAME_INTERNAL-28 "CounterSlit"
*MEAS_COND_AXIS_NAME_INTERNAL-29 "IncidentPrimary"
*MEAS_COND_AXIS_NAME_INTERNAL-30 "PHA"
*MEAS_COND_AXIS_NAME_MAGICNO-0 "83951616.0000000000"
*MEAS_COND_AXIS_NAME_MAGICNO-1 "268632064.0000000000"
*MEAS_COND_AXIS_NAME_MAGICNO-2 "268500992.0000000000"
*MEAS_COND_AXIS_NAME_MAGICNO-3 "285278208.0000000000"
*MEAS_COND_AXIS_NAME_MAGICNO-4 "83951616.0000000000"
*MEAS_COND_AXIS_NAME_MAGICNO-5 "131072.0000000000"
*MEAS_COND_AXIS_NAME_MAGICNO-6 "131072.0000000000"
*MEAS_COND_AXIS_NAME_MAGICNO-7 "318898176.0000000000"
*MEAS_COND_AXIS_NAME_MAGICNO-8 "20971521.0000000000"
*MEAS_COND_AXIS_NAME_MAGICNO-9 "285343744.0000000000"
*MEAS_COND_AXIS_NAME_MAGICNO-10 "20971521.0000000000"
*MEAS_COND_AXIS_NAME_MAGICNO-11 "22020097.0000000000"
*MEAS_COND_AXIS_NAME_MAGICNO-12 "25165824.0000000000"
*MEAS_COND_AXIS_NAME_MAGICNO-13 "318898176.0000000000"
*MEAS_COND_AXIS_NAME_MAGICNO-14 "1.0000000000"
*MEAS_COND_AXIS_NAME_MAGICNO-15 "20971521.0000000000"
*MEAS_COND_AXIS_NAME_MAGICNO-16 "20971521.0000000000"
*MEAS_COND_AXIS_NAME_MAGICNO-17 "20971521.0000000000"
*MEAS_COND_AXIS_NAME_MAGICNO-18 "23068673.0000000000"
*MEAS_COND_AXIS_NAME_MAGICNO-19 "23068673.0000000000"
*MEAS_COND_AXIS_NAME_MAGICNO-20 "20971521.0000000000"
*MEAS_COND_AXIS_NAME_MAGICNO-21 "20971521.0000000000"
*MEAS_COND_AXIS_NAME_MAGICNO-22 "20971521.0000000000"
*MEAS_COND_AXIS_NAME_MAGICNO-23 "25165824.0000000000"
*MEAS_COND_AXIS_NAME_MAGICNO-24 "25165824.0000000000"
*MEAS_COND_AXIS_NAME_MAGICNO-25 "285343744.0000000000"
*MEAS_COND_AXIS_NAME_MAGICNO-26 "17301505.0000000000"
*MEAS_COND_AXIS_NAME_MAGICNO-27 "20971521.0000000000"
*MEAS_COND_AXIS_NAME_MAGICNO-28 "20971521.0000000000"
*MEAS_COND_AXIS_NAME_MAGICNO-29 "20971521.0000000000"
*MEAS_COND_AXIS_NAME_MAGICNO-30 "0.0000000000"
*MEAS_COND_AXIS_OFFSET-0 "-"
*MEAS_COND_AXIS_OFFSET-1 "0.2295000000"
*MEAS_COND_AXIS_OFFSET-2 "0.6931000000"
*MEAS_COND_AXIS_OFFSET-3 "-"
*MEAS_COND_AXIS_OFFSET-4 "-"
*MEAS_COND_AXIS_OFFSET-5 "0.6931000000"
*MEAS_COND_AXIS_OFFSET-6 "-0.4636000000"
*MEAS_COND_AXIS_OFFSET-7 "-"
*MEAS_COND_AXIS_OFFSET-8 "-"
*MEAS_COND_AXIS_OFFSET-9 "-"
*MEAS_COND_AXIS_OFFSET-10 "-"
*MEAS_COND_AXIS_OFFSET-11 "-"
*MEAS_COND_AXIS_OFFSET-12 "-"
*MEAS_COND_AXIS_OFFSET-13 "-"
*MEAS_COND_AXIS_OFFSET-14 "-"
*MEAS_COND_AXIS_OFFSET-15 "-"
*MEAS_COND_AXIS_OFFSET-16 "-"
*MEAS_COND_AXIS_OFFSET-17 "-"
*MEAS_COND_AXIS_OFFSET-18 "-"
*MEAS_COND_AXIS_OFFSET-19 "-"
*MEAS_COND_AXIS_OFFSET-20 "-"
*MEAS_COND_AXIS_OFFSET-21 "-"
*MEAS_COND_AXIS_OFFSET-22 "-"
*MEAS_COND_AXIS_OFFSET-23 "-"
*MEAS_COND_AXIS_OFFSET-24 "-"
*MEAS_COND_AXIS_OFFSET-25 "-"
*MEAS_COND_AXIS_OFFSET-26 "-"
*MEAS_COND_AXIS_OFFSET-27 "-"
*MEAS_COND_AXIS_OFFSET-28 "-"
*MEAS_COND_AXIS_OFFSET-29 "-"
*MEAS_COND_AXIS_OFFSET-30 "-"
*MEAS_COND_AXIS_POSITION-0 "0.0000000000"
*MEAS_COND_AXIS_POSITION-1 "0.0000000000"
*MEAS_COND_AXIS_POSITION-2 "0.0000000000"
*MEAS_COND_AXIS_POSITION-3 "0.0000000000"
*MEAS_COND_AXIS_POSITION-4 "0.0000000000"
*MEAS_COND_AXIS_POSITION-5 "0.0000000000"
*MEAS_COND_AXIS_POSITION-6 "0.0000000000"
*MEAS_COND_AXIS_POSITION-7 "-0.1069400000"
*MEAS_COND_AXIS_POSITION-8 "BB"
*MEAS_COND_AXIS_POSITION-9 "0.0000000000"
*MEAS_COND_AXIS_POSITION-10 "Soller_slit_5.0deg"
*MEAS_COND_AXIS_POSITION-11 "2/3deg"
*MEAS_COND_AXIS_POSITION-12 "2.2088000000"
*MEAS_COND_AXIS_POSITION-13 "0.6687500000"
*MEAS_COND_AXIS_POSITION-14 "0.0000000000"
*MEAS_COND_AXIS_POSITION-15 "10.0mm"
*MEAS_COND_AXIS_POSITION-16 "None"
*MEAS_COND_AXIS_POSITION-17 "Cu_K-beta"
*MEAS_COND_AXIS_POSITION-18 "20.000mm"
*MEAS_COND_AXIS_POSITION-19 "20.000mm"
*MEAS_COND_AXIS_POSITION-20 "No_unit"
*MEAS_COND_AXIS_POSITION-21 "Soller_slit_5.0deg"
*MEAS_COND_AXIS_POSITION-22 "None"
*MEAS_COND_AXIS_POSITION-23 "20.0000000000"
*MEAS_COND_AXIS_POSITION-24 "20.0000000000"
*MEAS_COND_AXIS_POSITION-25 "0.2378100000"
*MEAS_COND_AXIS_POSITION-26 "Open"
*MEAS_COND_AXIS_POSITION-27 "None"
*MEAS_COND_AXIS_POSITION-28 "None"
*MEAS_COND_AXIS_POSITION-29 "None"
*MEAS_COND_AXIS_POSITION-30 "35.0000000000"
*MEAS_COND_AXIS_UNIT-0 "deg"
*MEAS_COND_AXIS_UNIT-1 "deg"
*MEAS_COND_AXIS_UNIT-2 "deg"
*MEAS_COND_AXIS_UNIT-3 "mm"
*MEAS_COND_AXIS_UNIT-4 "deg"
*MEAS_COND_AXIS_UNIT-5 "deg"
*MEAS_COND_AXIS_UNIT-6 "deg"
*MEAS_COND_AXIS_UNIT-7 "mm"
*MEAS_COND_AXIS_UNIT-8 ""
*MEAS_COND_AXIS_UNIT-9 "pulse"
*MEAS_COND_AXIS_UNIT-10 ""
*MEAS_COND_AXIS_UNIT-11 ""
*MEAS_COND_AXIS_UNIT-12 "mm"
*MEAS_COND_AXIS_UNIT-13 "mm"
*MEAS_COND_AXIS_UNIT-14 ""
*MEAS_COND_AXIS_UNIT-15 ""
*MEAS_COND_AXIS_UNIT-16 ""
*MEAS_COND_AXIS_UNIT-17 ""
*MEAS_COND_AXIS_UNIT-18 ""
*MEAS_COND_AXIS_UNIT-19 ""
*MEAS_COND_AXIS_UNIT-20 ""
*MEAS_COND_AXIS_UNIT-21 ""
*MEAS_COND_AXIS_UNIT-22 ""
*MEAS_COND_AXIS_UNIT-23 "mm"
*MEAS_COND_AXIS_UNIT-24 "mm"
*MEAS_COND_AXIS_UNIT-25 "mm"
*MEAS_COND_AXIS_UNIT-26 ""
*MEAS_COND_AXIS_UNIT-27 ""
*MEAS_COND_AXIS_UNIT-28 ""
*MEAS_COND_AXIS_UNIT-29 ""
*MEAS_COND_AXIS_UNIT-30 "div"
*MEAS_COND_COUNTER_CNTLOSS_CORR "0.0000000000"
*MEAS_COND_COUNTER_PHABASE "35.0000000000"
*MEAS_COND_COUNTER_PHAWINDOW "15.0000000000"
*MEAS_COND_COUNTER_PHA_UNIT "div"
*MEAS_COND_COUNTER_TAUDIFF "30.0000000000"
*MEAS_COND_COUNTER_TAUINT "0.0000000000"
*MEAS_COND_IRRADIATION_MODE "OFF"
*MEAS_COND_IRRADIATION_WIDTH ""
*MEAS_COND_OPT_ATTR "Bragg-Brentano focusing"
*MEAS_COND_OPT_NAME "@BB focusing"
*MEAS_COND_UNSYMMETRIC_MODE "OFF"
*MEAS_COND_XG_CURRENT "150.0000000000"
*MEAS_COND_XG_VOLTAGE "40.0000000000"
*MEAS_COND_XG_WAVE_TYPE "Ka"
*MEAS_DATA_COUNT "3501.0000000000"
*MEAS_SCAN_AXIS_X "Theta/2-Theta"
*MEAS_SCAN_AXIS_X_INTERNAL "TwoThetaTheta"
*MEAS_SCAN_END_TIME "06/01/26 14:58:50"
*MEAS_SCAN_MODE "CONTINUOUS"
*MEAS_SCAN_MONITOR "0"
*MEAS_SCAN_RESOLUTION_X "0.0002"
*MEAS_SCAN_SPEED "35.0"
*MEAS_SCAN_SPEED_UNIT "deg/min"
*MEAS_SCAN_START "10.0000000000"
*MEAS_SCAN_START_TIME "06/01/26 14:56:22"
*MEAS_SCAN_STEP "0.0200000000"
*MEAS_SCAN_STOP "80.0000000000"
*MEAS_SCAN_UNIT_X "deg"
*MEAS_SCAN_UNIT_Y "counts"
*RAS_HEADER_END
*RAS_INT_START
10.0000 1597.0000 1.0000
10.0200 1552.0000 1.0000
10.0400 1529.0000 1.0000
10.0600 1638.0000 1.0000
10.0800 1635.0000 1.0000
10.1000 1621.0000 1.0000
10.1200 1623.0000 1.0000
10.1400 1536.0000 1.0000
10.1600 1514.0000 1.0000
10.1800 1549.0000 1.0000
10.2000 1547.0000 1.0000
10.2200 1593.0000 1.0000
10.2400 1544.0000 1.0000
10.2600 1606.0000 1.0000
10.2800 1587.0000 1.0000
10.3000 1602.0000 1.0000
10.3200 1631.0000 1.0000
10.3400 1535.0000 1.0000
10.3600 1619.0000 1.0000
10.3800 1508.0000 1.0000
10.4000 1555.0000 1.0000
10.4200 1519.0000 1.0000
10.4400 1517.0000 1.0000
10.4600 1467.0000 1.0000
10.4800 1493.0000 1.0000
10.5000 1554.0000 1.0000
10.5200 1523.0000 1.0000
10.5400 1541.0000 1.0000
10.5600 1501.0000 1.0000
10.5800 1547.0000 1.0000
10.6000 1521.0000 1.0000
10.6200 1483.0000 1.0000
10.6400 1449.0000 1.0000
10.6600 1442.0000 1.0000
10.6800 1506.0000 1.0000
10.7000 1479.0000 1.0000
10.7200 1491.0000 1.0000
10.7400 1423.0000 1.0000
10.7600 1492.0000 1.0000
10.7800 1459.0000 1.0000
10.8000 1508.0000 1.0000
10.8200 1498.0000 1.0000
10.8400 1480.0000 1.0000
10.8600 1472.0000 1.0000
10.8800 1437.0000 1.0000
10.9000 1469.0000 1.0000
10.9200 1396.0000 1.0000
10.9400 1406.0000 1.0000
10.9600 1415.0000 1.0000
10.9800 1380.0000 1.0000
11.0000 1431.0000 1.0000
11.0200 1475.0000 1.0000
11.0400 1545.0000 1.0000
11.0600 1473.0000 1.0000
11.0800 1453.0000 1.0000
11.1000 1411.0000 1.0000
11.1200 1468.0000 1.0000
11.1400 1320.0000 1.0000
11.1600 1369.0000 1.0000
11.1800 1446.0000 1.0000
11.2000 1359.0000 1.0000
11.2200 1382.0000 1.0000
11.2400 1450.0000 1.0000
11.2600 1393.0000 1.0000
11.2800 1308.0000 1.0000
11.3000 1433.0000 1.0000
11.3200 1335.0000 1.0000
11.3400 1367.0000 1.0000
11.3600 1305.0000 1.0000
11.3800 1392.0000 1.0000
11.4000 1373.0000 1.0000
11.4200 1461.0000 1.0000
11.4400 1402.0000 1.0000
11.4600 1340.0000 1.0000
11.4800 1364.0000 1.0000
11.5000 1342.0000 1.0000
11.5200 1297.0000 1.0000
11.5400 1331.0000 1.0000
11.5600 1319.0000 1.0000
11.5800 1360.0000 1.0000
11.6000 1337.0000 1.0000
11.6200 1376.0000 1.0000
11.6400 1362.0000 1.0000
11.6600 1330.0000 1.0000
11.6800 1278.0000 1.0000
11.7000 1324.0000 1.0000
11.7200 1285.0000 1.0000
11.7400 1370.0000 1.0000
11.7600 1365.0000 1.0000
11.7800 1288.0000 1.0000
11.8000 1301.0000 1.0000
11.8200 1355.0000 1.0000
11.8400 1297.0000 1.0000
11.8600 1306.0000 1.0000
11.8800 1330.0000 1.0000
11.9000 1369.0000 1.0000
11.9200 1279.0000 1.0000
11.9400 1264.0000 1.0000
11.9600 1269.0000 1.0000
11.9800 1320.0000 1.0000
12.0000 1277.0000 1.0000
12.0200 1297.0000 1.0000
12.0400 1351.0000 1.0000
12.0600 1313.0000 1.0000
12.0800 1316.0000 1.0000
12.1000 1267.0000 1.0000
12.1200 1240.0000 1.0000
12.1400 1258.0000 1.0000
12.1600 1292.0000 1.0000
12.1800 1272.0000 1.0000
12.2000 1221.0000 1.0000
12.2200 1259.0000 1.0000
12.2400 1236.0000 1.0000
12.2600 1278.0000 1.0000
12.2800 1255.0000 1.0000
12.3000 1208.0000 1.0000
12.3200 1161.0000 1.0000
12.3400 1242.0000 1.0000
12.3600 1202.0000 1.0000
12.3800 1191.0000 1.0000
12.4000 1224.0000 1.0000
12.4200 1196.0000 1.0000
12.4400 1205.0000 1.0000
12.4600 1219.0000 1.0000
12.4800 1229.0000 1.0000
12.5000 1221.0000 1.0000
12.5200 1170.0000 1.0000
12.5400 1167.0000 1.0000
12.5600 1151.0000 1.0000
12.5800 1174.0000 1.0000
12.6000 1172.0000 1.0000
12.6200 1171.0000 1.0000
12.6400 1192.0000 1.0000
12.6600 1089.0000 1.0000
12.6800 1221.0000 1.0000
12.7000 1168.0000 1.0000
12.7200 1117.0000 1.0000
12.7400 1164.0000 1.0000
12.7600 1117.0000 1.0000
12.7800 1174.0000 1.0000
12.8000 1132.0000 1.0000
12.8200 1157.0000 1.0000
12.8400 1085.0000 1.0000
12.8600 1077.0000 1.0000
12.8800 1142.0000 1.0000
12.9000 1139.0000 1.0000
12.9200 1130.0000 1.0000
12.9400 1156.0000 1.0000
12.9600 1099.0000 1.0000
12.9800 1026.0000 1.0000
13.0000 1119.0000 1.0000
13.0200 1137.0000 1.0000
13.0400 1093.0000 1.0000
13.0600 1066.0000 1.0000
13.0800 1072.0000 1.0000
13.1000 1084.0000 1.0000
13.1200 1114.0000 1.0000
13.1400 1108.0000 1.0000
13.1600 1075.0000 1.0000
13.1800 1039.0000 1.0000
13.2000 1097.0000 1.0000
13.2200 1034.0000 1.0000
13.2400 1042.0000 1.0000
13.2600 1083.0000 1.0000
13.2800 1058.0000 1.0000
13.3000 1089.0000 1.0000
13.3200 1055.0000 1.0000
13.3400 1085.0000 1.0000
13.3600 1016.0000 1.0000
13.3800 1042.0000 1.0000
13.4000 978.0000 1.0000
13.4200 1049.0000 1.0000
13.4400 959.0000 1.0000
13.4600 993.0000 1.0000
13.4800 1037.0000 1.0000
13.5000 1018.0000 1.0000
13.5200 981.0000 1.0000
13.5400 968.0000 1.0000
13.5600 987.0000 1.0000
13.5800 1049.0000 1.0000
13.6000 1025.0000 1.0000
13.6200 1030.0000 1.0000
13.6400 1002.0000 1.0000
13.6600 990.0000 1.0000
13.6800 960.0000 1.0000
13.7000 970.0000 1.0000
13.7200 936.0000 1.0000
13.7400 1015.0000 1.0000
13.7600 936.0000 1.0000
13.7800 977.0000 1.0000
13.8000 1055.0000 1.0000
13.8200 965.0000 1.0000
13.8400 923.0000 1.0000
13.8600 965.0000 1.0000
13.8800 962.0000 1.0000
13.9000 965.0000 1.0000
13.9200 974.0000 1.0000
13.9400 942.0000 1.0000
13.9600 953.0000 1.0000
13.9800 961.0000 1.0000
14.0000 935.0000 1.0000
14.0200 961.0000 1.0000
14.0400 941.0000 1.0000
14.0600 954.0000 1.0000
14.0800 929.0000 1.0000
14.1000 938.0000 1.0000
14.1200 877.0000 1.0000
14.1400 942.0000 1.0000
14.1600 927.0000 1.0000
14.1800 925.0000 1.0000
14.2000 928.0000 1.0000
14.2200 873.0000 1.0000
14.2400 975.0000 1.0000
14.2600 924.0000 1.0000
14.2800 938.0000 1.0000
14.3000 942.0000 1.0000
14.3200 941.0000 1.0000
14.3400 904.0000 1.0000
14.3600 907.0000 1.0000
14.3800 947.0000 1.0000
14.4000 868.0000 1.0000
14.4200 870.0000 1.0000
14.4400 874.0000 1.0000
14.4600 871.0000 1.0000
14.4800 884.0000 1.0000
14.5000 835.0000 1.0000
14.5200 833.0000 1.0000
14.5400 799.0000 1.0000
14.5600 861.0000 1.0000
14.5800 858.0000 1.0000
14.6000 829.0000 1.0000
14.6200 805.0000 1.0000
14.6400 826.0000 1.0000
14.6600 796.0000 1.0000
14.6800 855.0000 1.0000
14.7000 780.0000 1.0000
14.7200 775.0000 1.0000
14.7400 798.0000 1.0000
14.7600 781.0000 1.0000
14.7800 809.0000 1.0000
14.8000 788.0000 1.0000
14.8200 798.0000 1.0000
14.8400 745.0000 1.0000
14.8600 814.0000 1.0000
14.8800 771.0000 1.0000
14.9000 736.0000 1.0000
14.9200 748.0000 1.0000
14.9400 805.0000 1.0000
14.9600 790.0000 1.0000
14.9800 792.0000 1.0000
15.0000 738.0000 1.0000
15.0200 732.0000 1.0000
15.0400 769.0000 1.0000
15.0600 747.0000 1.0000
15.0800 754.0000 1.0000
15.1000 749.0000 1.0000
15.1200 798.0000 1.0000
15.1400 774.0000 1.0000
15.1600 750.0000 1.0000
15.1800 782.0000 1.0000
15.2000 701.0000 1.0000
15.2200 757.0000 1.0000
15.2400 730.0000 1.0000
15.2600 658.0000 1.0000
15.2800 711.0000 1.0000
15.3000 740.0000 1.0000
15.3200 738.0000 1.0000
15.3400 745.0000 1.0000
15.3600 740.0000 1.0000
15.3800 745.0000 1.0000
15.4000 725.0000 1.0000
15.4200 708.0000 1.0000
15.4400 747.0000 1.0000
15.4600 737.0000 1.0000
15.4800 719.0000 1.0000
15.5000 707.0000 1.0000
15.5200 743.0000 1.0000
15.5400 696.0000 1.0000
15.5600 691.0000 1.0000
15.5800 690.0000 1.0000
15.6000 705.0000 1.0000
15.6200 721.0000 1.0000
15.6400 687.0000 1.0000
15.6600 716.0000 1.0000
15.6800 701.0000 1.0000
15.7000 691.0000 1.0000
15.7200 670.0000 1.0000
15.7400 714.0000 1.0000
15.7600 708.0000 1.0000
15.7800 708.0000 1.0000
15.8000 673.0000 1.0000
15.8200 708.0000 1.0000
15.8400 690.0000 1.0000
15.8600 672.0000 1.0000
15.8800 684.0000 1.0000
15.9000 666.0000 1.0000
15.9200 677.0000 1.0000
15.9400 688.0000 1.0000
15.9600 608.0000 1.0000
15.9800 638.0000 1.0000
16.0000 706.0000 1.0000
16.0200 668.0000 1.0000
16.0400 642.0000 1.0000
16.0600 660.0000 1.0000
16.0800 637.0000 1.0000
16.1000 652.0000 1.0000
16.1200 597.0000 1.0000
16.1400 666.0000 1.0000
16.1600 658.0000 1.0000
16.1800 677.0000 1.0000
16.2000 640.0000 1.0000
16.2200 672.0000 1.0000
16.2400 633.0000 1.0000
16.2600 607.0000 1.0000
16.2800 653.0000 1.0000
16.3000 663.0000 1.0000
16.3200 622.0000 1.0000
16.3400 643.0000 1.0000
16.3600 640.0000 1.0000
16.3800 637.0000 1.0000
16.4000 654.0000 1.0000
16.4200 628.0000 1.0000
16.4400 624.0000 1.0000
16.4600 648.0000 1.0000
16.4800 626.0000 1.0000
16.5000 591.0000 1.0000
16.5200 648.0000 1.0000
16.5400 630.0000 1.0000
16.5600 576.0000 1.0000
16.5800 588.0000 1.0000
16.6000 597.0000 1.0000
16.6200 641.0000 1.0000
16.6400 601.0000 1.0000
16.6600 573.0000 1.0000
16.6800 614.0000 1.0000
16.7000 595.0000 1.0000
16.7200 593.0000 1.0000
16.7400 577.0000 1.0000
16.7600 591.0000 1.0000
16.7800 613.0000 1.0000
16.8000 583.0000 1.0000
16.8200 622.0000 1.0000
16.8400 612.0000 1.0000
16.8600 601.0000 1.0000
16.8800 629.0000 1.0000
16.9000 623.0000 1.0000
16.9200 619.0000 1.0000
16.9400 562.0000 1.0000
16.9600 590.0000 1.0000
16.9800 565.0000 1.0000
17.0000 575.0000 1.0000
17.0200 573.0000 1.0000
17.0400 544.0000 1.0000
17.0600 642.0000 1.0000
17.0800 615.0000 1.0000
17.1000 591.0000 1.0000
17.1200 562.0000 1.0000
17.1400 608.0000 1.0000
17.1600 560.0000 1.0000
17.1800 597.0000 1.0000
17.2000 597.0000 1.0000
17.2200 510.0000 1.0000
17.2400 549.0000 1.0000
17.2600 594.0000 1.0000
17.2800 558.0000 1.0000
17.3000 535.0000 1.0000
17.3200 570.0000 1.0000
17.3400 534.0000 1.0000
17.3600 517.0000 1.0000
17.3800 585.0000 1.0000
17.4000 601.0000 1.0000
17.4200 560.0000 1.0000
17.4400 558.0000 1.0000
17.4600 589.0000 1.0000
17.4800 554.0000 1.0000
17.5000 560.0000 1.0000
17.5200 602.0000 1.0000
17.5400 567.0000 1.0000
17.5600 592.0000 1.0000
17.5800 575.0000 1.0000
17.6000 549.0000 1.0000
17.6200 548.0000 1.0000
17.6400 536.0000 1.0000
17.6600 555.0000 1.0000
17.6800 532.0000 1.0000
17.7000 589.0000 1.0000
17.7200 549.0000 1.0000
17.7400 526.0000 1.0000
17.7600 541.0000 1.0000
17.7800 533.0000 1.0000
17.8000 584.0000 1.0000
17.8200 557.0000 1.0000
17.8400 499.0000 1.0000
17.8600 564.0000 1.0000
17.8800 570.0000 1.0000
17.9000 543.0000 1.0000
17.9200 570.0000 1.0000
17.9400 530.0000 1.0000
17.9600 507.0000 1.0000
17.9800 558.0000 1.0000
18.0000 585.0000 1.0000
18.0200 549.0000 1.0000
18.0400 544.0000 1.0000
18.0600 531.0000 1.0000
18.0800 569.0000 1.0000
18.1000 522.0000 1.0000
18.1200 567.0000 1.0000
18.1400 566.0000 1.0000
18.1600 545.0000 1.0000
18.1800 511.0000 1.0000
18.2000 541.0000 1.0000
18.2200 506.0000 1.0000
18.2400 554.0000 1.0000
18.2600 547.0000 1.0000
18.2800 477.0000 1.0000
18.3000 541.0000 1.0000
18.3200 477.0000 1.0000
18.3400 550.0000 1.0000
18.3600 540.0000 1.0000
18.3800 509.0000 1.0000
18.4000 515.0000 1.0000
18.4200 532.0000 1.0000
18.4400 513.0000 1.0000
18.4600 504.0000 1.0000
18.4800 510.0000 1.0000
18.5000 507.0000 1.0000
18.5200 509.0000 1.0000
18.5400 509.0000 1.0000
18.5600 470.0000 1.0000
18.5800 538.0000 1.0000
18.6000 500.0000 1.0000
18.6200 495.0000 1.0000
18.6400 517.0000 1.0000
18.6600 493.0000 1.0000
18.6800 509.0000 1.0000
18.7000 497.0000 1.0000
18.7200 498.0000 1.0000
18.7400 516.0000 1.0000
18.7600 526.0000 1.0000
18.7800 487.0000 1.0000
18.8000 489.0000 1.0000
18.8200 499.0000 1.0000
18.8400 517.0000 1.0000
18.8600 537.0000 1.0000
18.8800 481.0000 1.0000
18.9000 526.0000 1.0000
18.9200 536.0000 1.0000
18.9400 497.0000 1.0000
18.9600 545.0000 1.0000
18.9800 508.0000 1.0000
19.0000 484.0000 1.0000
19.0200 512.0000 1.0000
19.0400 476.0000 1.0000
19.0600 475.0000 1.0000
19.0800 526.0000 1.0000
19.1000 497.0000 1.0000
19.1200 498.0000 1.0000
19.1400 442.0000 1.0000
19.1600 509.0000 1.0000
19.1800 453.0000 1.0000
19.2000 488.0000 1.0000
19.2200 493.0000 1.0000
19.2400 486.0000 1.0000
19.2600 462.0000 1.0000
19.2800 535.0000 1.0000
19.3000 467.0000 1.0000
19.3200 488.0000 1.0000
19.3400 503.0000 1.0000
19.3600 493.0000 1.0000
19.3800 476.0000 1.0000
19.4000 444.0000 1.0000
19.4200 495.0000 1.0000
19.4400 499.0000 1.0000
19.4600 509.0000 1.0000
19.4800 486.0000 1.0000
19.5000 477.0000 1.0000
19.5200 464.0000 1.0000
19.5400 479.0000 1.0000
19.5600 504.0000 1.0000
19.5800 498.0000 1.0000
19.6000 456.0000 1.0000
19.6200 453.0000 1.0000
19.6400 436.0000 1.0000
19.6600 468.0000 1.0000
19.6800 472.0000 1.0000
19.7000 476.0000 1.0000
19.7200 496.0000 1.0000
19.7400 456.0000 1.0000
19.7600 491.0000 1.0000
19.7800 440.0000 1.0000
19.8000 444.0000 1.0000
19.8200 445.0000 1.0000
19.8400 435.0000 1.0000
19.8600 463.0000 1.0000
19.8800 443.0000 1.0000
19.9000 464.0000 1.0000
19.9200 450.0000 1.0000
19.9400 466.0000 1.0000
19.9600 443.0000 1.0000
19.9800 486.0000 1.0000
20.0000 461.0000 1.0000
20.0200 480.0000 1.0000
20.0400 429.0000 1.0000
20.0600 437.0000 1.0000
20.0800 445.0000 1.0000
20.1000 501.0000 1.0000
20.1200 485.0000 1.0000
20.1400 466.0000 1.0000
20.1600 461.0000 1.0000
20.1800 461.0000 1.0000
20.2000 472.0000 1.0000
20.2200 452.0000 1.0000
20.2400 472.0000 1.0000
20.2600 468.0000 1.0000
20.2800 481.0000 1.0000
20.3000 465.0000 1.0000
20.3200 471.0000 1.0000
20.3400 478.0000 1.0000
20.3600 477.0000 1.0000
20.3800 438.0000 1.0000
20.4000 449.0000 1.0000
20.4200 429.0000 1.0000
20.4400 459.0000 1.0000
20.4600 433.0000 1.0000
20.4800 463.0000 1.0000
20.5000 483.0000 1.0000
20.5200 461.0000 1.0000
20.5400 468.0000 1.0000
20.5600 453.0000 1.0000
20.5800 474.0000 1.0000
20.6000 474.0000 1.0000
20.6200 472.0000 1.0000
20.6400 476.0000 1.0000
20.6600 483.0000 1.0000
20.6800 445.0000 1.0000
20.7000 490.0000 1.0000
20.7200 479.0000 1.0000
20.7400 424.0000 1.0000
20.7600 450.0000 1.0000
20.7800 470.0000 1.0000
20.8000 439.0000 1.0000
20.8200 444.0000 1.0000
20.8400 434.0000 1.0000
20.8600 458.0000 1.0000
20.8800 417.0000 1.0000
20.9000 436.0000 1.0000
20.9200 458.0000 1.0000
20.9400 464.0000 1.0000
20.9600 441.0000 1.0000
20.9800 429.0000 1.0000
21.0000 422.0000 1.0000
21.0200 425.0000 1.0000
21.0400 452.0000 1.0000
21.0600 411.0000 1.0000
21.0800 437.0000 1.0000
21.1000 433.0000 1.0000
21.1200 442.0000 1.0000
21.1400 416.0000 1.0000
21.1600 405.0000 1.0000
21.1800 479.0000 1.0000
21.2000 432.0000 1.0000
21.2200 403.0000 1.0000
21.2400 411.0000 1.0000
21.2600 395.0000 1.0000
21.2800 422.0000 1.0000
21.3000 408.0000 1.0000
21.3200 450.0000 1.0000
21.3400 430.0000 1.0000
21.3600 429.0000 1.0000
21.3800 406.0000 1.0000
21.4000 412.0000 1.0000
21.4200 424.0000 1.0000
21.4400 452.0000 1.0000
21.4600 402.0000 1.0000
21.4800 403.0000 1.0000
21.5000 402.0000 1.0000
21.5200 362.0000 1.0000
21.5400 415.0000 1.0000
21.5600 422.0000 1.0000
21.5800 424.0000 1.0000
21.6000 415.0000 1.0000
21.6200 426.0000 1.0000
21.6400 420.0000 1.0000
21.6600 417.0000 1.0000
21.6800 395.0000 1.0000
21.7000 406.0000 1.0000
21.7200 408.0000 1.0000
21.7400 413.0000 1.0000
21.7600 389.0000 1.0000
21.7800 417.0000 1.0000
21.8000 407.0000 1.0000
21.8200 405.0000 1.0000
21.8400 422.0000 1.0000
21.8600 408.0000 1.0000
21.8800 399.0000 1.0000
21.9000 430.0000 1.0000
21.9200 398.0000 1.0000
21.9400 365.0000 1.0000
21.9600 427.0000 1.0000
21.9800 401.0000 1.0000
22.0000 399.0000 1.0000
22.0200 396.0000 1.0000
22.0400 418.0000 1.0000
22.0600 405.0000 1.0000
22.0800 384.0000 1.0000
22.1000 387.0000 1.0000
22.1200 391.0000 1.0000
22.1400 392.0000 1.0000
22.1600 368.0000 1.0000
22.1800 433.0000 1.0000
22.2000 394.0000 1.0000
22.2200 381.0000 1.0000
22.2400 398.0000 1.0000
22.2600 411.0000 1.0000
22.2800 407.0000 1.0000
22.3000 396.0000 1.0000
22.3200 388.0000 1.0000
22.3400 399.0000 1.0000
22.3600 396.0000 1.0000
22.3800 398.0000 1.0000
22.4000 394.0000 1.0000
22.4200 428.0000 1.0000
22.4400 391.0000 1.0000
22.4600 395.0000 1.0000
22.4800 413.0000 1.0000
22.5000 397.0000 1.0000
22.5200 395.0000 1.0000
22.5400 399.0000 1.0000
22.5600 421.0000 1.0000
22.5800 391.0000 1.0000
22.6000 406.0000 1.0000
22.6200 386.0000 1.0000
22.6400 389.0000 1.0000
22.6600 395.0000 1.0000
22.6800 404.0000 1.0000
22.7000 396.0000 1.0000
22.7200 411.0000 1.0000
22.7400 384.0000 1.0000
22.7600 384.0000 1.0000
22.7800 382.0000 1.0000
22.8000 380.0000 1.0000
22.8200 446.0000 1.0000
22.8400 349.0000 1.0000
22.8600 371.0000 1.0000
22.8800 385.0000 1.0000
22.9000 404.0000 1.0000
22.9200 353.0000 1.0000
22.9400 380.0000 1.0000
22.9600 375.0000 1.0000
22.9800 375.0000 1.0000
23.0000 374.0000 1.0000
23.0200 357.0000 1.0000
23.0400 365.0000 1.0000
23.0600 391.0000 1.0000
23.0800 386.0000 1.0000
23.1000 391.0000 1.0000
23.1200 361.0000 1.0000
23.1400 360.0000 1.0000
23.1600 347.0000 1.0000
23.1800 370.0000 1.0000
23.2000 377.0000 1.0000
23.2200 367.0000 1.0000
23.2400 369.0000 1.0000
23.2600 398.0000 1.0000
23.2800 347.0000 1.0000
23.3000 369.0000 1.0000
23.3200 376.0000 1.0000
23.3400 403.0000 1.0000
23.3600 383.0000 1.0000
23.3800 388.0000 1.0000
23.4000 353.0000 1.0000
23.4200 356.0000 1.0000
23.4400 389.0000 1.0000
23.4600 413.0000 1.0000
23.4800 342.0000 1.0000
23.5000 368.0000 1.0000
23.5200 351.0000 1.0000
23.5400 354.0000 1.0000
23.5600 392.0000 1.0000
23.5800 366.0000 1.0000
23.6000 367.0000 1.0000
23.6200 364.0000 1.0000
23.6400 370.0000 1.0000
23.6600 333.0000 1.0000
23.6800 374.0000 1.0000
23.7000 384.0000 1.0000
23.7200 361.0000 1.0000
23.7400 361.0000 1.0000
23.7600 384.0000 1.0000
23.7800 382.0000 1.0000
23.8000 371.0000 1.0000
23.8200 374.0000 1.0000
23.8400 364.0000 1.0000
23.8600 362.0000 1.0000
23.8800 352.0000 1.0000
23.9000 342.0000 1.0000
23.9200 398.0000 1.0000
23.9400 369.0000 1.0000
23.9600 347.0000 1.0000
23.9800 360.0000 1.0000
24.0000 355.0000 1.0000
24.0200 341.0000 1.0000
24.0400 381.0000 1.0000
24.0600 368.0000 1.0000
24.0800 353.0000 1.0000
24.1000 382.0000 1.0000
24.1200 383.0000 1.0000
24.1400 348.0000 1.0000
24.1600 358.0000 1.0000
24.1800 354.0000 1.0000
24.2000 342.0000 1.0000
24.2200 375.0000 1.0000
24.2400 377.0000 1.0000
24.2600 331.0000 1.0000
24.2800 338.0000 1.0000
24.3000 335.0000 1.0000
24.3200 367.0000 1.0000
24.3400 353.0000 1.0000
24.3600 345.0000 1.0000
24.3800 332.0000 1.0000
24.4000 334.0000 1.0000
24.4200 358.0000 1.0000
24.4400 337.0000 1.0000
24.4600 365.0000 1.0000
24.4800 321.0000 1.0000
24.5000 365.0000 1.0000
24.5200 324.0000 1.0000
24.5400 361.0000 1.0000
24.5600 359.0000 1.0000
24.5800 356.0000 1.0000
24.6000 379.0000 1.0000
24.6200 358.0000 1.0000
24.6400 364.0000 1.0000
24.6600 362.0000 1.0000
24.6800 370.0000 1.0000
24.7000 348.0000 1.0000
24.7200 391.0000 1.0000
24.7400 325.0000 1.0000
24.7600 356.0000 1.0000
24.7800 339.0000 1.0000
24.8000 354.0000 1.0000
24.8200 314.0000 1.0000
24.8400 358.0000 1.0000
24.8600 328.0000 1.0000
24.8800 309.0000 1.0000
24.9000 347.0000 1.0000
24.9200 339.0000 1.0000
24.9400 353.0000 1.0000
24.9600 318.0000 1.0000
24.9800 327.0000 1.0000
25.0000 330.0000 1.0000
25.0200 323.0000 1.0000
25.0400 313.0000 1.0000
25.0600 316.0000 1.0000
25.0800 347.0000 1.0000
25.1000 328.0000 1.0000
25.1200 326.0000 1.0000
25.1400 352.0000 1.0000
25.1600 299.0000 1.0000
25.1800 336.0000 1.0000
25.2000 307.0000 1.0000
25.2200 313.0000 1.0000
25.2400 327.0000 1.0000
25.2600 323.0000 1.0000
25.2800 297.0000 1.0000
25.3000 318.0000 1.0000
25.3200 311.0000 1.0000
25.3400 348.0000 1.0000
25.3600 340.0000 1.0000
25.3800 348.0000 1.0000
25.4000 305.0000 1.0000
25.4200 358.0000 1.0000
25.4400 318.0000 1.0000
25.4600 347.0000 1.0000
25.4800 301.0000 1.0000
25.5000 319.0000 1.0000
25.5200 327.0000 1.0000
25.5400 326.0000 1.0000
25.5600 304.0000 1.0000
25.5800 363.0000 1.0000
25.6000 305.0000 1.0000
25.6200 312.0000 1.0000
25.6400 335.0000 1.0000
25.6600 372.0000 1.0000
25.6800 352.0000 1.0000
25.7000 338.0000 1.0000
25.7200 340.0000 1.0000
25.7400 313.0000 1.0000
25.7600 322.0000 1.0000
25.7800 319.0000 1.0000
25.8000 307.0000 1.0000
25.8200 336.0000 1.0000
25.8400 302.0000 1.0000
25.8600 330.0000 1.0000
25.8800 335.0000 1.0000
25.9000 310.0000 1.0000
25.9200 291.0000 1.0000
25.9400 336.0000 1.0000
25.9600 281.0000 1.0000
25.9800 308.0000 1.0000
26.0000 316.0000 1.0000
26.0200 336.0000 1.0000
26.0400 311.0000 1.0000
26.0600 335.0000 1.0000
26.0800 290.0000 1.0000
26.1000 328.0000 1.0000
26.1200 326.0000 1.0000
26.1400 316.0000 1.0000
26.1600 335.0000 1.0000
26.1800 342.0000 1.0000
26.2000 340.0000 1.0000
26.2200 322.0000 1.0000
26.2400 309.0000 1.0000
26.2600 305.0000 1.0000
26.2800 305.0000 1.0000
26.3000 331.0000 1.0000
26.3200 331.0000 1.0000
26.3400 292.0000 1.0000
26.3600 326.0000 1.0000
26.3800 348.0000 1.0000
26.4000 352.0000 1.0000
26.4200 338.0000 1.0000
26.4400 309.0000 1.0000
26.4600 287.0000 1.0000
26.4800 332.0000 1.0000
26.5000 313.0000 1.0000
26.5200 290.0000 1.0000
26.5400 315.0000 1.0000
26.5600 294.0000 1.0000
26.5800 299.0000 1.0000
26.6000 306.0000 1.0000
26.6200 293.0000 1.0000
26.6400 310.0000 1.0000
26.6600 322.0000 1.0000
26.6800 288.0000 1.0000
26.7000 299.0000 1.0000
26.7200 284.0000 1.0000
26.7400 296.0000 1.0000
26.7600 315.0000 1.0000
26.7800 329.0000 1.0000
26.8000 268.0000 1.0000
26.8200 285.0000 1.0000
26.8400 309.0000 1.0000
26.8600 300.0000 1.0000
26.8800 318.0000 1.0000
26.9000 299.0000 1.0000
26.9200 311.0000 1.0000
26.9400 307.0000 1.0000
26.9600 319.0000 1.0000
26.9800 314.0000 1.0000
27.0000 338.0000 1.0000
27.0200 304.0000 1.0000
27.0400 287.0000 1.0000
27.0600 300.0000 1.0000
27.0800 313.0000 1.0000
27.1000 302.0000 1.0000
27.1200 288.0000 1.0000
27.1400 298.0000 1.0000
27.1600 304.0000 1.0000
27.1800 323.0000 1.0000
27.2000 316.0000 1.0000
27.2200 296.0000 1.0000
27.2400 314.0000 1.0000
27.2600 325.0000 1.0000
27.2800 267.0000 1.0000
27.3000 327.0000 1.0000
27.3200 300.0000 1.0000
27.3400 297.0000 1.0000
27.3600 328.0000 1.0000
27.3800 312.0000 1.0000
27.4000 290.0000 1.0000
27.4200 302.0000 1.0000
27.4400 304.0000 1.0000
27.4600 314.0000 1.0000
27.4800 273.0000 1.0000
27.5000 291.0000 1.0000
27.5200 301.0000 1.0000
27.5400 290.0000 1.0000
27.5600 283.0000 1.0000
27.5800 301.0000 1.0000
27.6000 299.0000 1.0000
27.6200 293.0000 1.0000
27.6400 276.0000 1.0000
27.6600 308.0000 1.0000
27.6800 309.0000 1.0000
27.7000 275.0000 1.0000
27.7200 288.0000 1.0000
27.7400 305.0000 1.0000
27.7600 283.0000 1.0000
27.7800 280.0000 1.0000
27.8000 298.0000 1.0000
27.8200 307.0000 1.0000
27.8400 315.0000 1.0000
27.8600 281.0000 1.0000
27.8800 283.0000 1.0000
27.9000 294.0000 1.0000
27.9200 325.0000 1.0000
27.9400 265.0000 1.0000
27.9600 326.0000 1.0000
27.9800 307.0000 1.0000
28.0000 295.0000 1.0000
28.0200 292.0000 1.0000
28.0400 306.0000 1.0000
28.0600 298.0000 1.0000
28.0800 313.0000 1.0000
28.1000 308.0000 1.0000
28.1200 303.0000 1.0000
28.1400 310.0000 1.0000
28.1600 282.0000 1.0000
28.1800 279.0000 1.0000
28.2000 272.0000 1.0000
28.2200 291.0000 1.0000
28.2400 292.0000 1.0000
28.2600 272.0000 1.0000
28.2800 305.0000 1.0000
28.3000 313.0000 1.0000
28.3200 301.0000 1.0000
28.3400 305.0000 1.0000
28.3600 276.0000 1.0000
28.3800 297.0000 1.0000
28.4000 289.0000 1.0000
28.4200 285.0000 1.0000
28.4400 277.0000 1.0000
28.4600 304.0000 1.0000
28.4800 303.0000 1.0000
28.5000 271.0000 1.0000
28.5200 286.0000 1.0000
28.5400 280.0000 1.0000
28.5600 266.0000 1.0000
28.5800 244.0000 1.0000
28.6000 307.0000 1.0000
28.6200 310.0000 1.0000
28.6400 277.0000 1.0000
28.6600 270.0000 1.0000
28.6800 269.0000 1.0000
28.7000 273.0000 1.0000
28.7200 268.0000 1.0000
28.7400 268.0000 1.0000
28.7600 283.0000 1.0000
28.7800 268.0000 1.0000
28.8000 284.0000 1.0000
28.8200 309.0000 1.0000
28.8400 269.0000 1.0000
28.8600 270.0000 1.0000
28.8800 279.0000 1.0000
28.9000 268.0000 1.0000
28.9200 284.0000 1.0000
28.9400 306.0000 1.0000
28.9600 280.0000 1.0000
28.9800 253.0000 1.0000
29.0000 283.0000 1.0000
29.0200 281.0000 1.0000
29.0400 276.0000 1.0000
29.0600 267.0000 1.0000
29.0800 269.0000 1.0000
29.1000 252.0000 1.0000
29.1200 261.0000 1.0000
29.1400 260.0000 1.0000
29.1600 259.0000 1.0000
29.1800 262.0000 1.0000
29.2000 288.0000 1.0000
29.2200 319.0000 1.0000
29.2400 261.0000 1.0000
29.2600 285.0000 1.0000
29.2800 252.0000 1.0000
29.3000 260.0000 1.0000
29.3200 277.0000 1.0000
29.3400 272.0000 1.0000
29.3600 271.0000 1.0000
29.3800 266.0000 1.0000
29.4000 266.0000 1.0000
29.4200 243.0000 1.0000
29.4400 253.0000 1.0000
29.4600 240.0000 1.0000
29.4800 276.0000 1.0000
29.5000 283.0000 1.0000
29.5200 268.0000 1.0000
29.5400 259.0000 1.0000
29.5600 282.0000 1.0000
29.5800 280.0000 1.0000
29.6000 269.0000 1.0000
29.6200 267.0000 1.0000
29.6400 263.0000 1.0000
29.6600 277.0000 1.0000
29.6800 288.0000 1.0000
29.7000 278.0000 1.0000
29.7200 274.0000 1.0000
29.7400 260.0000 1.0000
29.7600 256.0000 1.0000
29.7800 266.0000 1.0000
29.8000 252.0000 1.0000
29.8200 299.0000 1.0000
29.8400 242.0000 1.0000
29.8600 247.0000 1.0000
29.8800 281.0000 1.0000
29.9000 264.0000 1.0000
29.9200 283.0000 1.0000
29.9400 258.0000 1.0000
29.9600 265.0000 1.0000
29.9800 257.0000 1.0000
30.0000 268.0000 1.0000
30.0200 257.0000 1.0000
30.0400 267.0000 1.0000
30.0600 263.0000 1.0000
30.0800 265.0000 1.0000
30.1000 276.0000 1.0000
30.1200 264.0000 1.0000
30.1400 265.0000 1.0000
30.1600 231.0000 1.0000
30.1800 253.0000 1.0000
30.2000 223.0000 1.0000
30.2200 291.0000 1.0000
30.2400 212.0000 1.0000
30.2600 282.0000 1.0000
30.2800 245.0000 1.0000
30.3000 274.0000 1.0000
30.3200 227.0000 1.0000
30.3400 281.0000 1.0000
30.3600 251.0000 1.0000
30.3800 259.0000 1.0000
30.4000 272.0000 1.0000
30.4200 255.0000 1.0000
30.4400 266.0000 1.0000
30.4600 230.0000 1.0000
30.4800 260.0000 1.0000
30.5000 269.0000 1.0000
30.5200 248.0000 1.0000
30.5400 243.0000 1.0000
30.5600 255.0000 1.0000
30.5800 267.0000 1.0000
30.6000 259.0000 1.0000
30.6200 240.0000 1.0000
30.6400 239.0000 1.0000
30.6600 250.0000 1.0000
30.6800 243.0000 1.0000
30.7000 240.0000 1.0000
30.7200 285.0000 1.0000
30.7400 249.0000 1.0000
30.7600 243.0000 1.0000
30.7800 231.0000 1.0000
30.8000 252.0000 1.0000
30.8200 251.0000 1.0000
30.8400 245.0000 1.0000
30.8600 273.0000 1.0000
30.8800 255.0000 1.0000
30.9000 246.0000 1.0000
30.9200 269.0000 1.0000
30.9400 238.0000 1.0000
30.9600 267.0000 1.0000
30.9800 234.0000 1.0000
31.0000 218.0000 1.0000
31.0200 277.0000 1.0000
31.0400 239.0000 1.0000
31.0600 246.0000 1.0000
31.0800 248.0000 1.0000
31.1000 232.0000 1.0000
31.1200 250.0000 1.0000
31.1400 242.0000 1.0000
31.1600 260.0000 1.0000
31.1800 245.0000 1.0000
31.2000 232.0000 1.0000
31.2200 237.0000 1.0000
31.2400 233.0000 1.0000
31.2600 234.0000 1.0000
31.2800 242.0000 1.0000
31.3000 257.0000 1.0000
31.3200 244.0000 1.0000
31.3400 262.0000 1.0000
31.3600 270.0000 1.0000
31.3800 243.0000 1.0000
31.4000 245.0000 1.0000
31.4200 225.0000 1.0000
31.4400 262.0000 1.0000
31.4600 256.0000 1.0000
31.4800 248.0000 1.0000
31.5000 204.0000 1.0000
31.5200 221.0000 1.0000
31.5400 232.0000 1.0000
31.5600 245.0000 1.0000
31.5800 225.0000 1.0000
31.6000 239.0000 1.0000
31.6200 268.0000 1.0000
31.6400 243.0000 1.0000
31.6600 237.0000 1.0000
31.6800 246.0000 1.0000
31.7000 270.0000 1.0000
31.7200 249.0000 1.0000
31.7400 247.0000 1.0000
31.7600 247.0000 1.0000
31.7800 259.0000 1.0000
31.8000 250.0000 1.0000
31.8200 225.0000 1.0000
31.8400 236.0000 1.0000
31.8600 256.0000 1.0000
31.8800 235.0000 1.0000
31.9000 233.0000 1.0000
31.9200 234.0000 1.0000
31.9400 277.0000 1.0000
31.9600 248.0000 1.0000
31.9800 228.0000 1.0000
32.0000 232.0000 1.0000
32.0200 222.0000 1.0000
32.0400 235.0000 1.0000
32.0600 236.0000 1.0000
32.0800 240.0000 1.0000
32.1000 217.0000 1.0000
32.1200 228.0000 1.0000
32.1400 252.0000 1.0000
32.1600 230.0000 1.0000
32.1800 217.0000 1.0000
32.2000 243.0000 1.0000
32.2200 260.0000 1.0000
32.2400 238.0000 1.0000
32.2600 234.0000 1.0000
32.2800 227.0000 1.0000
32.3000 241.0000 1.0000
32.3200 229.0000 1.0000
32.3400 248.0000 1.0000
32.3600 249.0000 1.0000
32.3800 262.0000 1.0000
32.4000 234.0000 1.0000
32.4200 251.0000 1.0000
32.4400 215.0000 1.0000
32.4600 221.0000 1.0000
32.4800 239.0000 1.0000
32.5000 204.0000 1.0000
32.5200 213.0000 1.0000
32.5400 238.0000 1.0000
32.5600 217.0000 1.0000
32.5800 222.0000 1.0000
32.6000 234.0000 1.0000
32.6200 227.0000 1.0000
32.6400 235.0000 1.0000
32.6600 225.0000 1.0000
32.6800 252.0000 1.0000
32.7000 222.0000 1.0000
32.7200 215.0000 1.0000
32.7400 222.0000 1.0000
32.7600 220.0000 1.0000
32.7800 226.0000 1.0000
32.8000 241.0000 1.0000
32.8200 222.0000 1.0000
32.8400 237.0000 1.0000
32.8600 248.0000 1.0000
32.8800 254.0000 1.0000
32.9000 209.0000 1.0000
32.9200 227.0000 1.0000
32.9400 213.0000 1.0000
32.9600 206.0000 1.0000
32.9800 234.0000 1.0000
33.0000 219.0000 1.0000
33.0200 234.0000 1.0000
33.0400 243.0000 1.0000
33.0600 242.0000 1.0000
33.0800 226.0000 1.0000
33.1000 223.0000 1.0000
33.1200 218.0000 1.0000
33.1400 228.0000 1.0000
33.1600 252.0000 1.0000
33.1800 220.0000 1.0000
33.2000 204.0000 1.0000
33.2200 245.0000 1.0000
33.2400 233.0000 1.0000
33.2600 206.0000 1.0000
33.2800 197.0000 1.0000
33.3000 204.0000 1.0000
33.3200 232.0000 1.0000
33.3400 232.0000 1.0000
33.3600 251.0000 1.0000
33.3800 242.0000 1.0000
33.4000 233.0000 1.0000
33.4200 231.0000 1.0000
33.4400 213.0000 1.0000
33.4600 225.0000 1.0000
33.4800 231.0000 1.0000
33.5000 204.0000 1.0000
33.5200 221.0000 1.0000
33.5400 216.0000 1.0000
33.5600 224.0000 1.0000
33.5800 219.0000 1.0000
33.6000 237.0000 1.0000
33.6200 221.0000 1.0000
33.6400 225.0000 1.0000
33.6600 219.0000 1.0000
33.6800 201.0000 1.0000
33.7000 204.0000 1.0000
33.7200 241.0000 1.0000
33.7400 224.0000 1.0000
33.7600 230.0000 1.0000
33.7800 234.0000 1.0000
33.8000 224.0000 1.0000
33.8200 230.0000 1.0000
33.8400 222.0000 1.0000
33.8600 205.0000 1.0000
33.8800 219.0000 1.0000
33.9000 243.0000 1.0000
33.9200 205.0000 1.0000
33.9400 245.0000 1.0000
33.9600 232.0000 1.0000
33.9800 201.0000 1.0000
34.0000 216.0000 1.0000
34.0200 224.0000 1.0000
34.0400 225.0000 1.0000
34.0600 228.0000 1.0000
34.0800 215.0000 1.0000
34.1000 203.0000 1.0000
34.1200 237.0000 1.0000
34.1400 231.0000 1.0000
34.1600 193.0000 1.0000
34.1800 239.0000 1.0000
34.2000 225.0000 1.0000
34.2200 227.0000 1.0000
34.2400 238.0000 1.0000
34.2600 207.0000 1.0000
34.2800 192.0000 1.0000
34.3000 217.0000 1.0000
34.3200 231.0000 1.0000
34.3400 219.0000 1.0000
34.3600 226.0000 1.0000
34.3800 205.0000 1.0000
34.4000 213.0000 1.0000
34.4200 197.0000 1.0000
34.4400 210.0000 1.0000
34.4600 231.0000 1.0000
34.4800 233.0000 1.0000
34.5000 221.0000 1.0000
34.5200 219.0000 1.0000
34.5400 202.0000 1.0000
34.5600 225.0000 1.0000
34.5800 212.0000 1.0000
34.6000 221.0000 1.0000
34.6200 205.0000 1.0000
34.6400 218.0000 1.0000
34.6600 215.0000 1.0000
34.6800 223.0000 1.0000
34.7000 236.0000 1.0000
34.7200 190.0000 1.0000
34.7400 201.0000 1.0000
34.7600 223.0000 1.0000
34.7800 224.0000 1.0000
34.8000 204.0000 1.0000
34.8200 230.0000 1.0000
34.8400 228.0000 1.0000
34.8600 223.0000 1.0000
34.8800 217.0000 1.0000
34.9000 214.0000 1.0000
34.9200 199.0000 1.0000
34.9400 217.0000 1.0000
34.9600 217.0000 1.0000
34.9800 211.0000 1.0000
35.0000 225.0000 1.0000
35.0200 189.0000 1.0000
35.0400 234.0000 1.0000
35.0600 206.0000 1.0000
35.0800 219.0000 1.0000
35.1000 206.0000 1.0000
35.1200 206.0000 1.0000
35.1400 211.0000 1.0000
35.1600 197.0000 1.0000
35.1800 215.0000 1.0000
35.2000 217.0000 1.0000
35.2200 238.0000 1.0000
35.2400 207.0000 1.0000
35.2600 206.0000 1.0000
35.2800 219.0000 1.0000
35.3000 201.0000 1.0000
35.3200 211.0000 1.0000
35.3400 219.0000 1.0000
35.3600 215.0000 1.0000
35.3800 180.0000 1.0000
35.4000 181.0000 1.0000
35.4200 211.0000 1.0000
35.4400 224.0000 1.0000
35.4600 219.0000 1.0000
35.4800 207.0000 1.0000
35.5000 193.0000 1.0000
35.5200 198.0000 1.0000
35.5400 209.0000 1.0000
35.5600 187.0000 1.0000
35.5800 187.0000 1.0000
35.6000 202.0000 1.0000
35.6200 232.0000 1.0000
35.6400 209.0000 1.0000
35.6600 213.0000 1.0000
35.6800 199.0000 1.0000
35.7000 185.0000 1.0000
35.7200 209.0000 1.0000
35.7400 169.0000 1.0000
35.7600 211.0000 1.0000
35.7800 198.0000 1.0000
35.8000 213.0000 1.0000
35.8200 212.0000 1.0000
35.8400 213.0000 1.0000
35.8600 203.0000 1.0000
35.8800 183.0000 1.0000
35.9000 207.0000 1.0000
35.9200 212.0000 1.0000
35.9400 215.0000 1.0000
35.9600 211.0000 1.0000
35.9800 201.0000 1.0000
36.0000 224.0000 1.0000
36.0200 207.0000 1.0000
36.0400 197.0000 1.0000
36.0600 209.0000 1.0000
36.0800 235.0000 1.0000
36.1000 207.0000 1.0000
36.1200 202.0000 1.0000
36.1400 213.0000 1.0000
36.1600 194.0000 1.0000
36.1800 191.0000 1.0000
36.2000 196.0000 1.0000
36.2200 207.0000 1.0000
36.2400 228.0000 1.0000
36.2600 181.0000 1.0000
36.2800 208.0000 1.0000
36.3000 203.0000 1.0000
36.3200 193.0000 1.0000
36.3400 203.0000 1.0000
36.3600 199.0000 1.0000
36.3800 188.0000 1.0000
36.4000 204.0000 1.0000
36.4200 196.0000 1.0000
36.4400 194.0000 1.0000
36.4600 239.0000 1.0000
36.4800 210.0000 1.0000
36.5000 196.0000 1.0000
36.5200 203.0000 1.0000
36.5400 194.0000 1.0000
36.5600 189.0000 1.0000
36.5800 169.0000 1.0000
36.6000 185.0000 1.0000
36.6200 176.0000 1.0000
36.6400 204.0000 1.0000
36.6600 203.0000 1.0000
36.6800 205.0000 1.0000
36.7000 205.0000 1.0000
36.7200 221.0000 1.0000
36.7400 215.0000 1.0000
36.7600 210.0000 1.0000
36.7800 195.0000 1.0000
36.8000 203.0000 1.0000
36.8200 194.0000 1.0000
36.8400 177.0000 1.0000
36.8600 201.0000 1.0000
36.8800 196.0000 1.0000
36.9000 206.0000 1.0000
36.9200 181.0000 1.0000
36.9400 229.0000 1.0000
36.9600 214.0000 1.0000
36.9800 210.0000 1.0000
37.0000 202.0000 1.0000
37.0200 207.0000 1.0000
37.0400 179.0000 1.0000
37.0600 180.0000 1.0000
37.0800 198.0000 1.0000
37.1000 189.0000 1.0000
37.1200 185.0000 1.0000
37.1400 207.0000 1.0000
37.1600 195.0000 1.0000
37.1800 209.0000 1.0000
37.2000 219.0000 1.0000
37.2200 175.0000 1.0000
37.2400 203.0000 1.0000
37.2600 211.0000 1.0000
37.2800 209.0000 1.0000
37.3000 193.0000 1.0000
37.3200 204.0000 1.0000
37.3400 205.0000 1.0000
37.3600 190.0000 1.0000
37.3800 170.0000 1.0000
37.4000 209.0000 1.0000
37.4200 185.0000 1.0000
37.4400 210.0000 1.0000
37.4600 191.0000 1.0000
37.4800 194.0000 1.0000
37.5000 194.0000 1.0000
37.5200 200.0000 1.0000
37.5400 210.0000 1.0000
37.5600 205.0000 1.0000
37.5800 179.0000 1.0000
37.6000 195.0000 1.0000
37.6200 201.0000 1.0000
37.6400 198.0000 1.0000
37.6600 184.0000 1.0000
37.6800 198.0000 1.0000
37.7000 228.0000 1.0000
37.7200 174.0000 1.0000
37.7400 203.0000 1.0000
37.7600 229.0000 1.0000
37.7800 206.0000 1.0000
37.8000 194.0000 1.0000
37.8200 200.0000 1.0000
37.8400 200.0000 1.0000
37.8600 185.0000 1.0000
37.8800 186.0000 1.0000
37.9000 201.0000 1.0000
37.9200 205.0000 1.0000
37.9400 192.0000 1.0000
37.9600 193.0000 1.0000
37.9800 191.0000 1.0000
38.0000 185.0000 1.0000
38.0200 204.0000 1.0000
38.0400 200.0000 1.0000
38.0600 188.0000 1.0000
38.0800 206.0000 1.0000
38.1000 202.0000 1.0000
38.1200 206.0000 1.0000
38.1400 189.0000 1.0000
38.1600 213.0000 1.0000
38.1800 203.0000 1.0000
38.2000 181.0000 1.0000
38.2200 201.0000 1.0000
38.2400 185.0000 1.0000
38.2600 187.0000 1.0000
38.2800 197.0000 1.0000
38.3000 201.0000 1.0000
38.3200 190.0000 1.0000
38.3400 191.0000 1.0000
38.3600 175.0000 1.0000
38.3800 204.0000 1.0000
38.4000 189.0000 1.0000
38.4200 177.0000 1.0000
38.4400 182.0000 1.0000
38.4600 194.0000 1.0000
38.4800 189.0000 1.0000
38.5000 187.0000 1.0000
38.5200 185.0000 1.0000
38.5400 195.0000 1.0000
38.5600 194.0000 1.0000
38.5800 217.0000 1.0000
38.6000 194.0000 1.0000
38.6200 198.0000 1.0000
38.6400 206.0000 1.0000
38.6600 201.0000 1.0000
38.6800 195.0000 1.0000
38.7000 183.0000 1.0000
38.7200 183.0000 1.0000
38.7400 193.0000 1.0000
38.7600 171.0000 1.0000
38.7800 194.0000 1.0000
38.8000 182.0000 1.0000
38.8200 175.0000 1.0000
38.8400 173.0000 1.0000
38.8600 182.0000 1.0000
38.8800 199.0000 1.0000
38.9000 209.0000 1.0000
38.9200 204.0000 1.0000
38.9400 209.0000 1.0000
38.9600 209.0000 1.0000
38.9800 182.0000 1.0000
39.0000 177.0000 1.0000
39.0200 202.0000 1.0000
39.0400 205.0000 1.0000
39.0600 199.0000 1.0000
39.0800 196.0000 1.0000
39.1000 185.0000 1.0000
39.1200 197.0000 1.0000
39.1400 193.0000 1.0000
39.1600 212.0000 1.0000
39.1800 189.0000 1.0000
39.2000 185.0000 1.0000
39.2200 179.0000 1.0000
39.2400 195.0000 1.0000
39.2600 193.0000 1.0000
39.2800 175.0000 1.0000
39.3000 202.0000 1.0000
39.3200 186.0000 1.0000
39.3400 203.0000 1.0000
39.3600 182.0000 1.0000
39.3800 197.0000 1.0000
39.4000 177.0000 1.0000
39.4200 172.0000 1.0000
39.4400 198.0000 1.0000
39.4600 188.0000 1.0000
39.4800 190.0000 1.0000
39.5000 182.0000 1.0000
39.5200 198.0000 1.0000
39.5400 170.0000 1.0000
39.5600 175.0000 1.0000
39.5800 194.0000 1.0000
39.6000 185.0000 1.0000
39.6200 221.0000 1.0000
39.6400 181.0000 1.0000
39.6600 207.0000 1.0000
39.6800 206.0000 1.0000
39.7000 197.0000 1.0000
39.7200 193.0000 1.0000
39.7400 189.0000 1.0000
39.7600 185.0000 1.0000
39.7800 183.0000 1.0000
39.8000 182.0000 1.0000
39.8200 179.0000 1.0000
39.8400 201.0000 1.0000
39.8600 191.0000 1.0000
39.8800 167.0000 1.0000
39.9000 182.0000 1.0000
39.9200 166.0000 1.0000
39.9400 173.0000 1.0000
39.9600 192.0000 1.0000
39.9800 186.0000 1.0000
40.0000 199.0000 1.0000
40.0200 186.0000 1.0000
40.0400 176.0000 1.0000
40.0600 178.0000 1.0000
40.0800 216.0000 1.0000
40.1000 173.0000 1.0000
40.1200 198.0000 1.0000
40.1400 196.0000 1.0000
40.1600 178.0000 1.0000
40.1800 180.0000 1.0000
40.2000 181.0000 1.0000
40.2200 196.0000 1.0000
40.2400 173.0000 1.0000
40.2600 180.0000 1.0000
40.2800 192.0000 1.0000
40.3000 183.0000 1.0000
40.3200 214.0000 1.0000
40.3400 173.0000 1.0000
40.3600 194.0000 1.0000
40.3800 191.0000 1.0000
40.4000 180.0000 1.0000
40.4200 180.0000 1.0000
40.4400 192.0000 1.0000
40.4600 185.0000 1.0000
40.4800 186.0000 1.0000
40.5000 185.0000 1.0000
40.5200 204.0000 1.0000
40.5400 189.0000 1.0000
40.5600 182.0000 1.0000
40.5800 179.0000 1.0000
40.6000 182.0000 1.0000
40.6200 207.0000 1.0000
40.6400 189.0000 1.0000
40.6600 195.0000 1.0000
40.6800 159.0000 1.0000
40.7000 190.0000 1.0000
40.7200 156.0000 1.0000
40.7400 188.0000 1.0000
40.7600 199.0000 1.0000
40.7800 167.0000 1.0000
40.8000 175.0000 1.0000
40.8200 208.0000 1.0000
40.8400 203.0000 1.0000
40.8600 182.0000 1.0000
40.8800 192.0000 1.0000
40.9000 185.0000 1.0000
40.9200 174.0000 1.0000
40.9400 174.0000 1.0000
40.9600 177.0000 1.0000
40.9800 184.0000 1.0000
41.0000 226.0000 1.0000
41.0200 189.0000 1.0000
41.0400 173.0000 1.0000
41.0600 168.0000 1.0000
41.0800 178.0000 1.0000
41.1000 199.0000 1.0000
41.1200 195.0000 1.0000
41.1400 202.0000 1.0000
41.1600 187.0000 1.0000
41.1800 174.0000 1.0000
41.2000 193.0000 1.0000
41.2200 183.0000 1.0000
41.2400 216.0000 1.0000
41.2600 202.0000 1.0000
41.2800 207.0000 1.0000
41.3000 206.0000 1.0000
41.3200 173.0000 1.0000
41.3400 180.0000 1.0000
41.3600 186.0000 1.0000
41.3800 183.0000 1.0000
41.4000 189.0000 1.0000
41.4200 177.0000 1.0000
41.4400 159.0000 1.0000
41.4600 193.0000 1.0000
41.4800 197.0000 1.0000
41.5000 175.0000 1.0000
41.5200 174.0000 1.0000
41.5400 189.0000 1.0000
41.5600 193.0000 1.0000
41.5800 190.0000 1.0000
41.6000 174.0000 1.0000
41.6200 221.0000 1.0000
41.6400 185.0000 1.0000
41.6600 181.0000 1.0000
41.6800 208.0000 1.0000
41.7000 192.0000 1.0000
41.7200 196.0000 1.0000
41.7400 182.0000 1.0000
41.7600 188.0000 1.0000
41.7800 162.0000 1.0000
41.8000 173.0000 1.0000
41.8200 187.0000 1.0000
41.8400 184.0000 1.0000
41.8600 186.0000 1.0000
41.8800 191.0000 1.0000
41.9000 169.0000 1.0000
41.9200 166.0000 1.0000
41.9400 185.0000 1.0000
41.9600 185.0000 1.0000
41.9800 191.0000 1.0000
42.0000 205.0000 1.0000
42.0200 184.0000 1.0000
42.0400 196.0000 1.0000
42.0600 181.0000 1.0000
42.0800 170.0000 1.0000
42.1000 171.0000 1.0000
42.1200 180.0000 1.0000
42.1400 157.0000 1.0000
42.1600 169.0000 1.0000
42.1800 187.0000 1.0000
42.2000 189.0000 1.0000
42.2200 176.0000 1.0000
42.2400 174.0000 1.0000
42.2600 215.0000 1.0000
42.2800 189.0000 1.0000
42.3000 189.0000 1.0000
42.3200 185.0000 1.0000
42.3400 170.0000 1.0000
42.3600 212.0000 1.0000
42.3800 183.0000 1.0000
42.4000 184.0000 1.0000
42.4200 187.0000 1.0000
42.4400 177.0000 1.0000
42.4600 185.0000 1.0000
42.4800 173.0000 1.0000
42.5000 165.0000 1.0000
42.5200 205.0000 1.0000
42.5400 179.0000 1.0000
42.5600 186.0000 1.0000
42.5800 168.0000 1.0000
42.6000 180.0000 1.0000
42.6200 190.0000 1.0000
42.6400 173.0000 1.0000
42.6600 174.0000 1.0000
42.6800 194.0000 1.0000
42.7000 163.0000 1.0000
42.7200 180.0000 1.0000
42.7400 188.0000 1.0000
42.7600 180.0000 1.0000
42.7800 192.0000 1.0000
42.8000 165.0000 1.0000
42.8200 173.0000 1.0000
42.8400 184.0000 1.0000
42.8600 177.0000 1.0000
42.8800 182.0000 1.0000
42.9000 200.0000 1.0000
42.9200 187.0000 1.0000
42.9400 175.0000 1.0000
42.9600 180.0000 1.0000
42.9800 173.0000 1.0000
43.0000 174.0000 1.0000
43.0200 172.0000 1.0000
43.0400 194.0000 1.0000
43.0600 170.0000 1.0000
43.0800 153.0000 1.0000
43.1000 178.0000 1.0000
43.1200 188.0000 1.0000
43.1400 185.0000 1.0000
43.1600 202.0000 1.0000
43.1800 180.0000 1.0000
43.2000 187.0000 1.0000
43.2200 179.0000 1.0000
43.2400 209.0000 1.0000
43.2600 184.0000 1.0000
43.2800 156.0000 1.0000
43.3000 197.0000 1.0000
43.3200 193.0000 1.0000
43.3400 181.0000 1.0000
43.3600 188.0000 1.0000
43.3800 176.0000 1.0000
43.4000 177.0000 1.0000
43.4200 180.0000 1.0000
43.4400 155.0000 1.0000
43.4600 178.0000 1.0000
43.4800 202.0000 1.0000
43.5000 168.0000 1.0000
43.5200 182.0000 1.0000
43.5400 171.0000 1.0000
43.5600 162.0000 1.0000
43.5800 177.0000 1.0000
43.6000 177.0000 1.0000
43.6200 184.0000 1.0000
43.6400 193.0000 1.0000
43.6600 192.0000 1.0000
43.6800 176.0000 1.0000
43.7000 167.0000 1.0000
43.7200 183.0000 1.0000
43.7400 168.0000 1.0000
43.7600 175.0000 1.0000
43.7800 212.0000 1.0000
43.8000 194.0000 1.0000
43.8200 165.0000 1.0000
43.8400 207.0000 1.0000
43.8600 181.0000 1.0000
43.8800 166.0000 1.0000
43.9000 191.0000 1.0000
43.9200 174.0000 1.0000
43.9400 154.0000 1.0000
43.9600 183.0000 1.0000
43.9800 184.0000 1.0000
44.0000 190.0000 1.0000
44.0200 177.0000 1.0000
44.0400 184.0000 1.0000
44.0600 180.0000 1.0000
44.0800 159.0000 1.0000
44.1000 175.0000 1.0000
44.1200 178.0000 1.0000
44.1400 181.0000 1.0000
44.1600 181.0000 1.0000
44.1800 167.0000 1.0000
44.2000 181.0000 1.0000
44.2200 170.0000 1.0000
44.2400 195.0000 1.0000
44.2600 171.0000 1.0000
44.2800 192.0000 1.0000
44.3000 175.0000 1.0000
44.3200 171.0000 1.0000
44.3400 155.0000 1.0000
44.3600 165.0000 1.0000
44.3800 186.0000 1.0000
44.4000 173.0000 1.0000
44.4200 184.0000 1.0000
44.4400 188.0000 1.0000
44.4600 191.0000 1.0000
44.4800 216.0000 1.0000
44.5000 184.0000 1.0000
44.5200 171.0000 1.0000
44.5400 185.0000 1.0000
44.5600 166.0000 1.0000
44.5800 164.0000 1.0000
44.6000 190.0000 1.0000
44.6200 182.0000 1.0000
44.6400 161.0000 1.0000
44.6600 157.0000 1.0000
44.6800 170.0000 1.0000
44.7000 183.0000 1.0000
44.7200 178.0000 1.0000
44.7400 169.0000 1.0000
44.7600 182.0000 1.0000
44.7800 180.0000 1.0000
44.8000 189.0000 1.0000
44.8200 190.0000 1.0000
44.8400 195.0000 1.0000
44.8600 194.0000 1.0000
44.8800 185.0000 1.0000
44.9000 158.0000 1.0000
44.9200 194.0000 1.0000
44.9400 168.0000 1.0000
44.9600 187.0000 1.0000
44.9800 178.0000 1.0000
45.0000 185.0000 1.0000
45.0200 196.0000 1.0000
45.0400 188.0000 1.0000
45.0600 201.0000 1.0000
45.0800 175.0000 1.0000
45.1000 193.0000 1.0000
45.1200 172.0000 1.0000
45.1400 185.0000 1.0000
45.1600 191.0000 1.0000
45.1800 175.0000 1.0000
45.2000 190.0000 1.0000
45.2200 159.0000 1.0000
45.2400 194.0000 1.0000
45.2600 185.0000 1.0000
45.2800 179.0000 1.0000
45.3000 179.0000 1.0000
45.3200 169.0000 1.0000
45.3400 154.0000 1.0000
45.3600 148.0000 1.0000
45.3800 204.0000 1.0000
45.4000 183.0000 1.0000
45.4200 154.0000 1.0000
45.4400 161.0000 1.0000
45.4600 171.0000 1.0000
45.4800 173.0000 1.0000
45.5000 166.0000 1.0000
45.5200 171.0000 1.0000
45.5400 171.0000 1.0000
45.5600 200.0000 1.0000
45.5800 184.0000 1.0000
45.6000 199.0000 1.0000
45.6200 171.0000 1.0000
45.6400 156.0000 1.0000
45.6600 161.0000 1.0000
45.6800 160.0000 1.0000
45.7000 181.0000 1.0000
45.7200 197.0000 1.0000
45.7400 193.0000 1.0000
45.7600 180.0000 1.0000
45.7800 164.0000 1.0000
45.8000 205.0000 1.0000
45.8200 191.0000 1.0000
45.8400 167.0000 1.0000
45.8600 174.0000 1.0000
45.8800 205.0000 1.0000
45.9000 191.0000 1.0000
45.9200 206.0000 1.0000
45.9400 184.0000 1.0000
45.9600 195.0000 1.0000
45.9800 176.0000 1.0000
46.0000 168.0000 1.0000
46.0200 172.0000 1.0000
46.0400 185.0000 1.0000
46.0600 181.0000 1.0000
46.0800 175.0000 1.0000
46.1000 192.0000 1.0000
46.1200 168.0000 1.0000
46.1400 190.0000 1.0000
46.1600 181.0000 1.0000
46.1800 189.0000 1.0000
46.2000 179.0000 1.0000
46.2200 152.0000 1.0000
46.2400 199.0000 1.0000
46.2600 174.0000 1.0000
46.2800 176.0000 1.0000
46.3000 180.0000 1.0000
46.3200 188.0000 1.0000
46.3400 168.0000 1.0000
46.3600 206.0000 1.0000
46.3800 199.0000 1.0000
46.4000 175.0000 1.0000
46.4200 195.0000 1.0000
46.4400 187.0000 1.0000
46.4600 200.0000 1.0000
46.4800 186.0000 1.0000
46.5000 193.0000 1.0000
46.5200 192.0000 1.0000
46.5400 190.0000 1.0000
46.5600 189.0000 1.0000
46.5800 169.0000 1.0000
46.6000 169.0000 1.0000
46.6200 180.0000 1.0000
46.6400 187.0000 1.0000
46.6600 182.0000 1.0000
46.6800 202.0000 1.0000
46.7000 176.0000 1.0000
46.7200 175.0000 1.0000
46.7400 177.0000 1.0000
46.7600 189.0000 1.0000
46.7800 179.0000 1.0000
46.8000 179.0000 1.0000
46.8200 202.0000 1.0000
46.8400 177.0000 1.0000
46.8600 185.0000 1.0000
46.8800 215.0000 1.0000
46.9000 184.0000 1.0000
46.9200 187.0000 1.0000
46.9400 201.0000 1.0000
46.9600 174.0000 1.0000
46.9800 207.0000 1.0000
47.0000 167.0000 1.0000
47.0200 190.0000 1.0000
47.0400 184.0000 1.0000
47.0600 212.0000 1.0000
47.0800 175.0000 1.0000
47.1000 196.0000 1.0000
47.1200 198.0000 1.0000
47.1400 183.0000 1.0000
47.1600 216.0000 1.0000
47.1800 182.0000 1.0000
47.2000 192.0000 1.0000
47.2200 184.0000 1.0000
47.2400 186.0000 1.0000
47.2600 191.0000 1.0000
47.2800 173.0000 1.0000
47.3000 179.0000 1.0000
47.3200 168.0000 1.0000
47.3400 181.0000 1.0000
47.3600 184.0000 1.0000
47.3800 200.0000 1.0000
47.4000 169.0000 1.0000
47.4200 195.0000 1.0000
47.4400 190.0000 1.0000
47.4600 218.0000 1.0000
47.4800 184.0000 1.0000
47.5000 170.0000 1.0000
47.5200 188.0000 1.0000
47.5400 220.0000 1.0000
47.5600 208.0000 1.0000
47.5800 197.0000 1.0000
47.6000 180.0000 1.0000
47.6200 163.0000 1.0000
47.6400 222.0000 1.0000
47.6600 191.0000 1.0000
47.6800 169.0000 1.0000
47.7000 189.0000 1.0000
47.7200 184.0000 1.0000
47.7400 194.0000 1.0000
47.7600 196.0000 1.0000
47.7800 215.0000 1.0000
47.8000 210.0000 1.0000
47.8200 177.0000 1.0000
47.8400 171.0000 1.0000
47.8600 201.0000 1.0000
47.8800 192.0000 1.0000
47.9000 184.0000 1.0000
47.9200 195.0000 1.0000
47.9400 171.0000 1.0000
47.9600 188.0000 1.0000
47.9800 164.0000 1.0000
48.0000 177.0000 1.0000
48.0200 202.0000 1.0000
48.0400 196.0000 1.0000
48.0600 175.0000 1.0000
48.0800 186.0000 1.0000
48.1000 199.0000 1.0000
48.1200 178.0000 1.0000
48.1400 195.0000 1.0000
48.1600 181.0000 1.0000
48.1800 172.0000 1.0000
48.2000 206.0000 1.0000
48.2200 214.0000 1.0000
48.2400 183.0000 1.0000
48.2600 193.0000 1.0000
48.2800 202.0000 1.0000
48.3000 218.0000 1.0000
48.3200 183.0000 1.0000
48.3400 182.0000 1.0000
48.3600 198.0000 1.0000
48.3800 217.0000 1.0000
48.4000 200.0000 1.0000
48.4200 204.0000 1.0000
48.4400 210.0000 1.0000
48.4600 211.0000 1.0000
48.4800 211.0000 1.0000
48.5000 195.0000 1.0000
48.5200 193.0000 1.0000
48.5400 207.0000 1.0000
48.5600 200.0000 1.0000
48.5800 183.0000 1.0000
48.6000 213.0000 1.0000
48.6200 198.0000 1.0000
48.6400 219.0000 1.0000
48.6600 178.0000 1.0000
48.6800 186.0000 1.0000
48.7000 190.0000 1.0000
48.7200 181.0000 1.0000
48.7400 178.0000 1.0000
48.7600 213.0000 1.0000
48.7800 201.0000 1.0000
48.8000 191.0000 1.0000
48.8200 197.0000 1.0000
48.8400 217.0000 1.0000
48.8600 196.0000 1.0000
48.8800 200.0000 1.0000
48.9000 199.0000 1.0000
48.9200 184.0000 1.0000
48.9400 200.0000 1.0000
48.9600 181.0000 1.0000
48.9800 192.0000 1.0000
49.0000 194.0000 1.0000
49.0200 204.0000 1.0000
49.0400 193.0000 1.0000
49.0600 208.0000 1.0000
49.0800 211.0000 1.0000
49.1000 187.0000 1.0000
49.1200 179.0000 1.0000
49.1400 190.0000 1.0000
49.1600 211.0000 1.0000
49.1800 185.0000 1.0000
49.2000 200.0000 1.0000
49.2200 205.0000 1.0000
49.2400 194.0000 1.0000
49.2600 201.0000 1.0000
49.2800 206.0000 1.0000
49.3000 194.0000 1.0000
49.3200 182.0000 1.0000
49.3400 201.0000 1.0000
49.3600 234.0000 1.0000
49.3800 222.0000 1.0000
49.4000 208.0000 1.0000
49.4200 213.0000 1.0000
49.4400 205.0000 1.0000
49.4600 209.0000 1.0000
49.4800 206.0000 1.0000
49.5000 212.0000 1.0000
49.5200 221.0000 1.0000
49.5400 187.0000 1.0000
49.5600 177.0000 1.0000
49.5800 200.0000 1.0000
49.6000 194.0000 1.0000
49.6200 214.0000 1.0000
49.6400 189.0000 1.0000
49.6600 183.0000 1.0000
49.6800 190.0000 1.0000
49.7000 188.0000 1.0000
49.7200 219.0000 1.0000
49.7400 197.0000 1.0000
49.7600 209.0000 1.0000
49.7800 203.0000 1.0000
49.8000 203.0000 1.0000
49.8200 211.0000 1.0000
49.8400 189.0000 1.0000
49.8600 199.0000 1.0000
49.8800 215.0000 1.0000
49.9000 215.0000 1.0000
49.9200 208.0000 1.0000
49.9400 170.0000 1.0000
49.9600 199.0000 1.0000
49.9800 208.0000 1.0000
50.0000 217.0000 1.0000
50.0200 214.0000 1.0000
50.0400 193.0000 1.0000
50.0600 195.0000 1.0000
50.0800 221.0000 1.0000
50.1000 216.0000 1.0000
50.1200 174.0000 1.0000
50.1400 185.0000 1.0000
50.1600 204.0000 1.0000
50.1800 209.0000 1.0000
50.2000 223.0000 1.0000
50.2200 220.0000 1.0000
50.2400 198.0000 1.0000
50.2600 195.0000 1.0000
50.2800 208.0000 1.0000
50.3000 181.0000 1.0000
50.3200 176.0000 1.0000
50.3400 214.0000 1.0000
50.3600 233.0000 1.0000
50.3800 226.0000 1.0000
50.4000 208.0000 1.0000
50.4200 235.0000 1.0000
50.4400 238.0000 1.0000
50.4600 213.0000 1.0000
50.4800 229.0000 1.0000
50.5000 206.0000 1.0000
50.5200 232.0000 1.0000
50.5400 219.0000 1.0000
50.5600 188.0000 1.0000
50.5800 238.0000 1.0000
50.6000 209.0000 1.0000
50.6200 212.0000 1.0000
50.6400 214.0000 1.0000
50.6600 200.0000 1.0000
50.6800 231.0000 1.0000
50.7000 219.0000 1.0000
50.7200 231.0000 1.0000
50.7400 211.0000 1.0000
50.7600 197.0000 1.0000
50.7800 219.0000 1.0000
50.8000 200.0000 1.0000
50.8200 211.0000 1.0000
50.8400 231.0000 1.0000
50.8600 195.0000 1.0000
50.8800 220.0000 1.0000
50.9000 196.0000 1.0000
50.9200 225.0000 1.0000
50.9400 237.0000 1.0000
50.9600 220.0000 1.0000
50.9800 205.0000 1.0000
51.0000 191.0000 1.0000
51.0200 213.0000 1.0000
51.0400 236.0000 1.0000
51.0600 223.0000 1.0000
51.0800 197.0000 1.0000
51.1000 162.0000 1.0000
51.1200 192.0000 1.0000
51.1400 221.0000 1.0000
51.1600 227.0000 1.0000
51.1800 226.0000 1.0000
51.2000 226.0000 1.0000
51.2200 234.0000 1.0000
51.2400 204.0000 1.0000
51.2600 212.0000 1.0000
51.2800 198.0000 1.0000
51.3000 218.0000 1.0000
51.3200 227.0000 1.0000
51.3400 184.0000 1.0000
51.3600 209.0000 1.0000
51.3800 220.0000 1.0000
51.4000 223.0000 1.0000
51.4200 215.0000 1.0000
51.4400 217.0000 1.0000
51.4600 214.0000 1.0000
51.4800 231.0000 1.0000
51.5000 211.0000 1.0000
51.5200 241.0000 1.0000
51.5400 238.0000 1.0000
51.5600 245.0000 1.0000
51.5800 231.0000 1.0000
51.6000 224.0000 1.0000
51.6200 241.0000 1.0000
51.6400 221.0000 1.0000
51.6600 225.0000 1.0000
51.6800 210.0000 1.0000
51.7000 232.0000 1.0000
51.7200 229.0000 1.0000
51.7400 226.0000 1.0000
51.7600 215.0000 1.0000
51.7800 194.0000 1.0000
51.8000 231.0000 1.0000
51.8200 214.0000 1.0000
51.8400 214.0000 1.0000
51.8600 211.0000 1.0000
51.8800 259.0000 1.0000
51.9000 255.0000 1.0000
51.9200 250.0000 1.0000
51.9400 219.0000 1.0000
51.9600 233.0000 1.0000
51.9800 216.0000 1.0000
52.0000 232.0000 1.0000
52.0200 233.0000 1.0000
52.0400 203.0000 1.0000
52.0600 213.0000 1.0000
52.0800 244.0000 1.0000
52.1000 226.0000 1.0000
52.1200 226.0000 1.0000
52.1400 204.0000 1.0000
52.1600 229.0000 1.0000
52.1800 240.0000 1.0000
52.2000 230.0000 1.0000
52.2200 207.0000 1.0000
52.2400 227.0000 1.0000
52.2600 215.0000 1.0000
52.2800 229.0000 1.0000
52.3000 248.0000 1.0000
52.3200 209.0000 1.0000
52.3400 208.0000 1.0000
52.3600 246.0000 1.0000
52.3800 234.0000 1.0000
52.4000 244.0000 1.0000
52.4200 210.0000 1.0000
52.4400 253.0000 1.0000
52.4600 231.0000 1.0000
52.4800 235.0000 1.0000
52.5000 223.0000 1.0000
52.5200 219.0000 1.0000
52.5400 242.0000 1.0000
52.5600 228.0000 1.0000
52.5800 225.0000 1.0000
52.6000 218.0000 1.0000
52.6200 212.0000 1.0000
52.6400 217.0000 1.0000
52.6600 202.0000 1.0000
52.6800 227.0000 1.0000
52.7000 239.0000 1.0000
52.7200 235.0000 1.0000
52.7400 240.0000 1.0000
52.7600 228.0000 1.0000
52.7800 227.0000 1.0000
52.8000 213.0000 1.0000
52.8200 258.0000 1.0000
52.8400 206.0000 1.0000
52.8600 242.0000 1.0000
52.8800 220.0000 1.0000
52.9000 211.0000 1.0000
52.9200 217.0000 1.0000
52.9400 230.0000 1.0000
52.9600 219.0000 1.0000
52.9800 247.0000 1.0000
53.0000 233.0000 1.0000
53.0200 209.0000 1.0000
53.0400 236.0000 1.0000
53.0600 217.0000 1.0000
53.0800 221.0000 1.0000
53.1000 222.0000 1.0000
53.1200 216.0000 1.0000
53.1400 210.0000 1.0000
53.1600 233.0000 1.0000
53.1800 223.0000 1.0000
53.2000 202.0000 1.0000
53.2200 228.0000 1.0000
53.2400 233.0000 1.0000
53.2600 208.0000 1.0000
53.2800 204.0000 1.0000
53.3000 231.0000 1.0000
53.3200 232.0000 1.0000
53.3400 204.0000 1.0000
53.3600 213.0000 1.0000
53.3800 205.0000 1.0000
53.4000 245.0000 1.0000
53.4200 223.0000 1.0000
53.4400 217.0000 1.0000
53.4600 193.0000 1.0000
53.4800 224.0000 1.0000
53.5000 250.0000 1.0000
53.5200 260.0000 1.0000
53.5400 232.0000 1.0000
53.5600 215.0000 1.0000
53.5800 253.0000 1.0000
53.6000 218.0000 1.0000
53.6200 205.0000 1.0000
53.6400 228.0000 1.0000
53.6600 217.0000 1.0000
53.6800 246.0000 1.0000
53.7000 231.0000 1.0000
53.7200 215.0000 1.0000
53.7400 196.0000 1.0000
53.7600 215.0000 1.0000
53.7800 217.0000 1.0000
53.8000 238.0000 1.0000
53.8200 230.0000 1.0000
53.8400 232.0000 1.0000
53.8600 231.0000 1.0000
53.8800 226.0000 1.0000
53.9000 205.0000 1.0000
53.9200 233.0000 1.0000
53.9400 222.0000 1.0000
53.9600 224.0000 1.0000
53.9800 227.0000 1.0000
54.0000 214.0000 1.0000
54.0200 209.0000 1.0000
54.0400 210.0000 1.0000
54.0600 204.0000 1.0000
54.0800 204.0000 1.0000
54.1000 204.0000 1.0000
54.1200 227.0000 1.0000
54.1400 231.0000 1.0000
54.1600 226.0000 1.0000
54.1800 198.0000 1.0000
54.2000 216.0000 1.0000
54.2200 244.0000 1.0000
54.2400 215.0000 1.0000
54.2600 232.0000 1.0000
54.2800 219.0000 1.0000
54.3000 223.0000 1.0000
54.3200 221.0000 1.0000
54.3400 228.0000 1.0000
54.3600 203.0000 1.0000
54.3800 223.0000 1.0000
54.4000 220.0000 1.0000
54.4200 203.0000 1.0000
54.4400 217.0000 1.0000
54.4600 212.0000 1.0000
54.4800 221.0000 1.0000
54.5000 217.0000 1.0000
54.5200 221.0000 1.0000
54.5400 202.0000 1.0000
54.5600 207.0000 1.0000
54.5800 199.0000 1.0000
54.6000 221.0000 1.0000
54.6200 199.0000 1.0000
54.6400 235.0000 1.0000
54.6600 206.0000 1.0000
54.6800 239.0000 1.0000
54.7000 216.0000 1.0000
54.7200 224.0000 1.0000
54.7400 249.0000 1.0000
54.7600 201.0000 1.0000
54.7800 196.0000 1.0000
54.8000 203.0000 1.0000
54.8200 196.0000 1.0000
54.8400 208.0000 1.0000
54.8600 203.0000 1.0000
54.8800 221.0000 1.0000
54.9000 224.0000 1.0000
54.9200 200.0000 1.0000
54.9400 220.0000 1.0000
54.9600 223.0000 1.0000
54.9800 208.0000 1.0000
55.0000 195.0000 1.0000
55.0200 181.0000 1.0000
55.0400 233.0000 1.0000
55.0600 213.0000 1.0000
55.0800 197.0000 1.0000
55.1000 195.0000 1.0000
55.1200 200.0000 1.0000
55.1400 214.0000 1.0000
55.1600 221.0000 1.0000
55.1800 206.0000 1.0000
55.2000 214.0000 1.0000
55.2200 205.0000 1.0000
55.2400 194.0000 1.0000
55.2600 217.0000 1.0000
55.2800 205.0000 1.0000
55.3000 203.0000 1.0000
55.3200 193.0000 1.0000
55.3400 200.0000 1.0000
55.3600 184.0000 1.0000
55.3800 207.0000 1.0000
55.4000 215.0000 1.0000
55.4200 164.0000 1.0000
55.4400 188.0000 1.0000
55.4600 210.0000 1.0000
55.4800 217.0000 1.0000
55.5000 176.0000 1.0000
55.5200 190.0000 1.0000
55.5400 220.0000 1.0000
55.5600 217.0000 1.0000
55.5800 199.0000 1.0000
55.6000 193.0000 1.0000
55.6200 224.0000 1.0000
55.6400 192.0000 1.0000
55.6600 230.0000 1.0000
55.6800 205.0000 1.0000
55.7000 198.0000 1.0000
55.7200 213.0000 1.0000
55.7400 213.0000 1.0000
55.7600 197.0000 1.0000
55.7800 188.0000 1.0000
55.8000 203.0000 1.0000
55.8200 218.0000 1.0000
55.8400 198.0000 1.0000
55.8600 234.0000 1.0000
55.8800 210.0000 1.0000
55.9000 216.0000 1.0000
55.9200 211.0000 1.0000
55.9400 197.0000 1.0000
55.9600 198.0000 1.0000
55.9800 176.0000 1.0000
56.0000 198.0000 1.0000
56.0200 201.0000 1.0000
56.0400 209.0000 1.0000
56.0600 195.0000 1.0000
56.0800 187.0000 1.0000
56.1000 177.0000 1.0000
56.1200 201.0000 1.0000
56.1400 189.0000 1.0000
56.1600 206.0000 1.0000
56.1800 200.0000 1.0000
56.2000 185.0000 1.0000
56.2200 203.0000 1.0000
56.2400 165.0000 1.0000
56.2600 169.0000 1.0000
56.2800 171.0000 1.0000
56.3000 171.0000 1.0000
56.3200 188.0000 1.0000
56.3400 212.0000 1.0000
56.3600 198.0000 1.0000
56.3800 190.0000 1.0000
56.4000 181.0000 1.0000
56.4200 205.0000 1.0000
56.4400 177.0000 1.0000
56.4600 171.0000 1.0000
56.4800 182.0000 1.0000
56.5000 199.0000 1.0000
56.5200 178.0000 1.0000
56.5400 201.0000 1.0000
56.5600 190.0000 1.0000
56.5800 204.0000 1.0000
56.6000 194.0000 1.0000
56.6200 200.0000 1.0000
56.6400 186.0000 1.0000
56.6600 171.0000 1.0000
56.6800 186.0000 1.0000
56.7000 206.0000 1.0000
56.7200 217.0000 1.0000
56.7400 199.0000 1.0000
56.7600 175.0000 1.0000
56.7800 196.0000 1.0000
56.8000 202.0000 1.0000
56.8200 156.0000 1.0000
56.8400 174.0000 1.0000
56.8600 179.0000 1.0000
56.8800 188.0000 1.0000
56.9000 170.0000 1.0000
56.9200 196.0000 1.0000
56.9400 189.0000 1.0000
56.9600 187.0000 1.0000
56.9800 201.0000 1.0000
57.0000 171.0000 1.0000
57.0200 177.0000 1.0000
57.0400 191.0000 1.0000
57.0600 178.0000 1.0000
57.0800 177.0000 1.0000
57.1000 168.0000 1.0000
57.1200 176.0000 1.0000
57.1400 179.0000 1.0000
57.1600 196.0000 1.0000
57.1800 208.0000 1.0000
57.2000 201.0000 1.0000
57.2200 203.0000 1.0000
57.2400 187.0000 1.0000
57.2600 146.0000 1.0000
57.2800 159.0000 1.0000
57.3000 167.0000 1.0000
57.3200 175.0000 1.0000
57.3400 188.0000 1.0000
57.3600 203.0000 1.0000
57.3800 188.0000 1.0000
57.4000 174.0000 1.0000
57.4200 200.0000 1.0000
57.4400 179.0000 1.0000
57.4600 175.0000 1.0000
57.4800 169.0000 1.0000
57.5000 189.0000 1.0000
57.5200 182.0000 1.0000
57.5400 184.0000 1.0000
57.5600 171.0000 1.0000
57.5800 171.0000 1.0000
57.6000 164.0000 1.0000
57.6200 175.0000 1.0000
57.6400 172.0000 1.0000
57.6600 198.0000 1.0000
57.6800 181.0000 1.0000
57.7000 161.0000 1.0000
57.7200 180.0000 1.0000
57.7400 200.0000 1.0000
57.7600 203.0000 1.0000
57.7800 189.0000 1.0000
57.8000 187.0000 1.0000
57.8200 176.0000 1.0000
57.8400 157.0000 1.0000
57.8600 165.0000 1.0000
57.8800 178.0000 1.0000
57.9000 151.0000 1.0000
57.9200 159.0000 1.0000
57.9400 171.0000 1.0000
57.9600 183.0000 1.0000
57.9800 168.0000 1.0000
58.0000 182.0000 1.0000
58.0200 164.0000 1.0000
58.0400 167.0000 1.0000
58.0600 148.0000 1.0000
58.0800 176.0000 1.0000
58.1000 199.0000 1.0000
58.1200 175.0000 1.0000
58.1400 178.0000 1.0000
58.1600 168.0000 1.0000
58.1800 168.0000 1.0000
58.2000 177.0000 1.0000
58.2200 164.0000 1.0000
58.2400 162.0000 1.0000
58.2600 187.0000 1.0000
58.2800 171.0000 1.0000
58.3000 187.0000 1.0000
58.3200 173.0000 1.0000
58.3400 164.0000 1.0000
58.3600 182.0000 1.0000
58.3800 170.0000 1.0000
58.4000 165.0000 1.0000
58.4200 173.0000 1.0000
58.4400 157.0000 1.0000
58.4600 173.0000 1.0000
58.4800 186.0000 1.0000
58.5000 172.0000 1.0000
58.5200 166.0000 1.0000
58.5400 192.0000 1.0000
58.5600 155.0000 1.0000
58.5800 162.0000 1.0000
58.6000 163.0000 1.0000
58.6200 169.0000 1.0000
58.6400 170.0000 1.0000
58.6600 169.0000 1.0000
58.6800 160.0000 1.0000
58.7000 152.0000 1.0000
58.7200 151.0000 1.0000
58.7400 184.0000 1.0000
58.7600 183.0000 1.0000
58.7800 171.0000 1.0000
58.8000 176.0000 1.0000
58.8200 168.0000 1.0000
58.8400 165.0000 1.0000
58.8600 151.0000 1.0000
58.8800 185.0000 1.0000
58.9000 159.0000 1.0000
58.9200 159.0000 1.0000
58.9400 150.0000 1.0000
58.9600 162.0000 1.0000
58.9800 150.0000 1.0000
59.0000 151.0000 1.0000
59.0200 159.0000 1.0000
59.0400 167.0000 1.0000
59.0600 158.0000 1.0000
59.0800 182.0000 1.0000
59.1000 173.0000 1.0000
59.1200 156.0000 1.0000
59.1400 151.0000 1.0000
59.1600 156.0000 1.0000
59.1800 168.0000 1.0000
59.2000 160.0000 1.0000
59.2200 162.0000 1.0000
59.2400 146.0000 1.0000
59.2600 168.0000 1.0000
59.2800 166.0000 1.0000
59.3000 178.0000 1.0000
59.3200 159.0000 1.0000
59.3400 168.0000 1.0000
59.3600 156.0000 1.0000
59.3800 160.0000 1.0000
59.4000 156.0000 1.0000
59.4200 147.0000 1.0000
59.4400 158.0000 1.0000
59.4600 159.0000 1.0000
59.4800 147.0000 1.0000
59.5000 170.0000 1.0000
59.5200 168.0000 1.0000
59.5400 171.0000 1.0000
59.5600 140.0000 1.0000
59.5800 197.0000 1.0000
59.6000 167.0000 1.0000
59.6200 153.0000 1.0000
59.6400 158.0000 1.0000
59.6600 175.0000 1.0000
59.6800 182.0000 1.0000
59.7000 174.0000 1.0000
59.7200 156.0000 1.0000
59.7400 159.0000 1.0000
59.7600 162.0000 1.0000
59.7800 182.0000 1.0000
59.8000 157.0000 1.0000
59.8200 149.0000 1.0000
59.8400 134.0000 1.0000
59.8600 146.0000 1.0000
59.8800 147.0000 1.0000
59.9000 140.0000 1.0000
59.9200 157.0000 1.0000
59.9400 155.0000 1.0000
59.9600 155.0000 1.0000
59.9800 165.0000 1.0000
60.0000 152.0000 1.0000
60.0200 146.0000 1.0000
60.0400 158.0000 1.0000
60.0600 168.0000 1.0000
60.0800 163.0000 1.0000
60.1000 157.0000 1.0000
60.1200 140.0000 1.0000
60.1400 110.0000 1.0000
60.1600 147.0000 1.0000
60.1800 161.0000 1.0000
60.2000 146.0000 1.0000
60.2200 168.0000 1.0000
60.2400 171.0000 1.0000
60.2600 134.0000 1.0000
60.2800 168.0000 1.0000
60.3000 159.0000 1.0000
60.3200 179.0000 1.0000
60.3400 155.0000 1.0000
60.3600 166.0000 1.0000
60.3800 163.0000 1.0000
60.4000 152.0000 1.0000
60.4200 142.0000 1.0000
60.4400 137.0000 1.0000
60.4600 153.0000 1.0000
60.4800 158.0000 1.0000
60.5000 141.0000 1.0000
60.5200 140.0000 1.0000
60.5400 152.0000 1.0000
60.5600 155.0000 1.0000
60.5800 167.0000 1.0000
60.6000 145.0000 1.0000
60.6200 139.0000 1.0000
60.6400 178.0000 1.0000
60.6600 151.0000 1.0000
60.6800 137.0000 1.0000
60.7000 144.0000 1.0000
60.7200 151.0000 1.0000
60.7400 145.0000 1.0000
60.7600 175.0000 1.0000
60.7800 169.0000 1.0000
60.8000 144.0000 1.0000
60.8200 158.0000 1.0000
60.8400 142.0000 1.0000
60.8600 168.0000 1.0000
60.8800 142.0000 1.0000
60.9000 150.0000 1.0000
60.9200 149.0000 1.0000
60.9400 168.0000 1.0000
60.9600 161.0000 1.0000
60.9800 149.0000 1.0000
61.0000 136.0000 1.0000
61.0200 160.0000 1.0000
61.0400 151.0000 1.0000
61.0600 141.0000 1.0000
61.0800 147.0000 1.0000
61.1000 158.0000 1.0000
61.1200 129.0000 1.0000
61.1400 145.0000 1.0000
61.1600 135.0000 1.0000
61.1800 133.0000 1.0000
61.2000 170.0000 1.0000
61.2200 142.0000 1.0000
61.2400 153.0000 1.0000
61.2600 143.0000 1.0000
61.2800 156.0000 1.0000
61.3000 155.0000 1.0000
61.3200 142.0000 1.0000
61.3400 137.0000 1.0000
61.3600 137.0000 1.0000
61.3800 167.0000 1.0000
61.4000 183.0000 1.0000
61.4200 153.0000 1.0000
61.4400 151.0000 1.0000
61.4600 150.0000 1.0000
61.4800 124.0000 1.0000
61.5000 152.0000 1.0000
61.5200 137.0000 1.0000
61.5400 177.0000 1.0000
61.5600 146.0000 1.0000
61.5800 138.0000 1.0000
61.6000 153.0000 1.0000
61.6200 140.0000 1.0000
61.6400 136.0000 1.0000
61.6600 145.0000 1.0000
61.6800 134.0000 1.0000
61.7000 135.0000 1.0000
61.7200 144.0000 1.0000
61.7400 163.0000 1.0000
61.7600 147.0000 1.0000
61.7800 146.0000 1.0000
61.8000 154.0000 1.0000
61.8200 156.0000 1.0000
61.8400 166.0000 1.0000
61.8600 167.0000 1.0000
61.8800 137.0000 1.0000
61.9000 105.0000 1.0000
61.9200 145.0000 1.0000
61.9400 122.0000 1.0000
61.9600 154.0000 1.0000
61.9800 157.0000 1.0000
62.0000 152.0000 1.0000
62.0200 147.0000 1.0000
62.0400 145.0000 1.0000
62.0600 163.0000 1.0000
62.0800 155.0000 1.0000
62.1000 149.0000 1.0000
62.1200 145.0000 1.0000
62.1400 121.0000 1.0000
62.1600 138.0000 1.0000
62.1800 155.0000 1.0000
62.2000 159.0000 1.0000
62.2200 134.0000 1.0000
62.2400 160.0000 1.0000
62.2600 138.0000 1.0000
62.2800 164.0000 1.0000
62.3000 132.0000 1.0000
62.3200 149.0000 1.0000
62.3400 133.0000 1.0000
62.3600 182.0000 1.0000
62.3800 129.0000 1.0000
62.4000 132.0000 1.0000
62.4200 136.0000 1.0000
62.4400 144.0000 1.0000
62.4600 139.0000 1.0000
62.4800 131.0000 1.0000
62.5000 140.0000 1.0000
62.5200 154.0000 1.0000
62.5400 110.0000 1.0000
62.5600 139.0000 1.0000
62.5800 156.0000 1.0000
62.6000 148.0000 1.0000
62.6200 141.0000 1.0000
62.6400 136.0000 1.0000
62.6600 148.0000 1.0000
62.6800 124.0000 1.0000
62.7000 134.0000 1.0000
62.7200 130.0000 1.0000
62.7400 124.0000 1.0000
62.7600 134.0000 1.0000
62.7800 147.0000 1.0000
62.8000 151.0000 1.0000
62.8200 132.0000 1.0000
62.8400 123.0000 1.0000
62.8600 133.0000 1.0000
62.8800 138.0000 1.0000
62.9000 127.0000 1.0000
62.9200 154.0000 1.0000
62.9400 131.0000 1.0000
62.9600 137.0000 1.0000
62.9800 149.0000 1.0000
63.0000 120.0000 1.0000
63.0200 139.0000 1.0000
63.0400 156.0000 1.0000
63.0600 155.0000 1.0000
63.0800 123.0000 1.0000
63.1000 152.0000 1.0000
63.1200 134.0000 1.0000
63.1400 123.0000 1.0000
63.1600 145.0000 1.0000
63.1800 140.0000 1.0000
63.2000 115.0000 1.0000
63.2200 141.0000 1.0000
63.2400 159.0000 1.0000
63.2600 136.0000 1.0000
63.2800 135.0000 1.0000
63.3000 153.0000 1.0000
63.3200 132.0000 1.0000
63.3400 146.0000 1.0000
63.3600 152.0000 1.0000
63.3800 119.0000 1.0000
63.4000 126.0000 1.0000
63.4200 128.0000 1.0000
63.4400 132.0000 1.0000
63.4600 137.0000 1.0000
63.4800 124.0000 1.0000
63.5000 142.0000 1.0000
63.5200 135.0000 1.0000
63.5400 145.0000 1.0000
63.5600 120.0000 1.0000
63.5800 117.0000 1.0000
63.6000 141.0000 1.0000
63.6200 166.0000 1.0000
63.6400 166.0000 1.0000
63.6600 144.0000 1.0000
63.6800 138.0000 1.0000
63.7000 140.0000 1.0000
63.7200 146.0000 1.0000
63.7400 135.0000 1.0000
63.7600 127.0000 1.0000
63.7800 128.0000 1.0000
63.8000 146.0000 1.0000
63.8200 130.0000 1.0000
63.8400 153.0000 1.0000
63.8600 150.0000 1.0000
63.8800 130.0000 1.0000
63.9000 140.0000 1.0000
63.9200 129.0000 1.0000
63.9400 128.0000 1.0000
63.9600 121.0000 1.0000
63.9800 136.0000 1.0000
64.0000 130.0000 1.0000
64.0200 133.0000 1.0000
64.0400 131.0000 1.0000
64.0600 116.0000 1.0000
64.0800 124.0000 1.0000
64.1000 116.0000 1.0000
64.1200 140.0000 1.0000
64.1400 139.0000 1.0000
64.1600 130.0000 1.0000
64.1800 129.0000 1.0000
64.2000 126.0000 1.0000
64.2200 127.0000 1.0000
64.2400 160.0000 1.0000
64.2600 143.0000 1.0000
64.2800 155.0000 1.0000
64.3000 117.0000 1.0000
64.3200 137.0000 1.0000
64.3400 138.0000 1.0000
64.3600 127.0000 1.0000
64.3800 135.0000 1.0000
64.4000 123.0000 1.0000
64.4200 149.0000 1.0000
64.4400 113.0000 1.0000
64.4600 130.0000 1.0000
64.4800 133.0000 1.0000
64.5000 131.0000 1.0000
64.5200 149.0000 1.0000
64.5400 147.0000 1.0000
64.5600 126.0000 1.0000
64.5800 131.0000 1.0000
64.6000 142.0000 1.0000
64.6200 133.0000 1.0000
64.6400 119.0000 1.0000
64.6600 115.0000 1.0000
64.6800 118.0000 1.0000
64.7000 132.0000 1.0000
64.7200 148.0000 1.0000
64.7400 135.0000 1.0000
64.7600 125.0000 1.0000
64.7800 110.0000 1.0000
64.8000 126.0000 1.0000
64.8200 127.0000 1.0000
64.8400 146.0000 1.0000
64.8600 134.0000 1.0000
64.8800 143.0000 1.0000
64.9000 147.0000 1.0000
64.9200 130.0000 1.0000
64.9400 128.0000 1.0000
64.9600 121.0000 1.0000
64.9800 140.0000 1.0000
65.0000 131.0000 1.0000
65.0200 131.0000 1.0000
65.0400 116.0000 1.0000
65.0600 144.0000 1.0000
65.0800 149.0000 1.0000
65.1000 145.0000 1.0000
65.1200 148.0000 1.0000
65.1400 125.0000 1.0000
65.1600 118.0000 1.0000
65.1800 124.0000 1.0000
65.2000 129.0000 1.0000
65.2200 133.0000 1.0000
65.2400 128.0000 1.0000
65.2600 132.0000 1.0000
65.2800 114.0000 1.0000
65.3000 142.0000 1.0000
65.3200 118.0000 1.0000
65.3400 158.0000 1.0000
65.3600 135.0000 1.0000
65.3800 140.0000 1.0000
65.4000 137.0000 1.0000
65.4200 131.0000 1.0000
65.4400 137.0000 1.0000
65.4600 145.0000 1.0000
65.4800 137.0000 1.0000
65.5000 124.0000 1.0000
65.5200 110.0000 1.0000
65.5400 130.0000 1.0000
65.5600 149.0000 1.0000
65.5800 112.0000 1.0000
65.6000 122.0000 1.0000
65.6200 104.0000 1.0000
65.6400 126.0000 1.0000
65.6600 132.0000 1.0000
65.6800 131.0000 1.0000
65.7000 124.0000 1.0000
65.7200 142.0000 1.0000
65.7400 141.0000 1.0000
65.7600 138.0000 1.0000
65.7800 122.0000 1.0000
65.8000 117.0000 1.0000
65.8200 113.0000 1.0000
65.8400 129.0000 1.0000
65.8600 127.0000 1.0000
65.8800 119.0000 1.0000
65.9000 113.0000 1.0000
65.9200 123.0000 1.0000
65.9400 122.0000 1.0000
65.9600 127.0000 1.0000
65.9800 132.0000 1.0000
66.0000 112.0000 1.0000
66.0200 128.0000 1.0000
66.0400 141.0000 1.0000
66.0600 150.0000 1.0000
66.0800 120.0000 1.0000
66.1000 129.0000 1.0000
66.1200 132.0000 1.0000
66.1400 137.0000 1.0000
66.1600 129.0000 1.0000
66.1800 118.0000 1.0000
66.2000 129.0000 1.0000
66.2200 133.0000 1.0000
66.2400 131.0000 1.0000
66.2600 139.0000 1.0000
66.2800 112.0000 1.0000
66.3000 126.0000 1.0000
66.3200 118.0000 1.0000
66.3400 136.0000 1.0000
66.3600 128.0000 1.0000
66.3800 121.0000 1.0000
66.4000 118.0000 1.0000
66.4200 146.0000 1.0000
66.4400 132.0000 1.0000
66.4600 136.0000 1.0000
66.4800 139.0000 1.0000
66.5000 114.0000 1.0000
66.5200 109.0000 1.0000
66.5400 133.0000 1.0000
66.5600 143.0000 1.0000
66.5800 112.0000 1.0000
66.6000 132.0000 1.0000
66.6200 122.0000 1.0000
66.6400 120.0000 1.0000
66.6600 129.0000 1.0000
66.6800 146.0000 1.0000
66.7000 124.0000 1.0000
66.7200 134.0000 1.0000
66.7400 128.0000 1.0000
66.7600 128.0000 1.0000
66.7800 128.0000 1.0000
66.8000 117.0000 1.0000
66.8200 128.0000 1.0000
66.8400 118.0000 1.0000
66.8600 122.0000 1.0000
66.8800 124.0000 1.0000
66.9000 131.0000 1.0000
66.9200 111.0000 1.0000
66.9400 118.0000 1.0000
66.9600 144.0000 1.0000
66.9800 133.0000 1.0000
67.0000 133.0000 1.0000
67.0200 135.0000 1.0000
67.0400 150.0000 1.0000
67.0600 130.0000 1.0000
67.0800 118.0000 1.0000
67.1000 135.0000 1.0000
67.1200 113.0000 1.0000
67.1400 133.0000 1.0000
67.1600 134.0000 1.0000
67.1800 129.0000 1.0000
67.2000 122.0000 1.0000
67.2200 114.0000 1.0000
67.2400 127.0000 1.0000
67.2600 116.0000 1.0000
67.2800 127.0000 1.0000
67.3000 133.0000 1.0000
67.3200 135.0000 1.0000
67.3400 127.0000 1.0000
67.3600 125.0000 1.0000
67.3800 115.0000 1.0000
67.4000 123.0000 1.0000
67.4200 116.0000 1.0000
67.4400 128.0000 1.0000
67.4600 116.0000 1.0000
67.4800 126.0000 1.0000
67.5000 112.0000 1.0000
67.5200 133.0000 1.0000
67.5400 136.0000 1.0000
67.5600 139.0000 1.0000
67.5800 122.0000 1.0000
67.6000 112.0000 1.0000
67.6200 118.0000 1.0000
67.6400 147.0000 1.0000
67.6600 138.0000 1.0000
67.6800 111.0000 1.0000
67.7000 120.0000 1.0000
67.7200 105.0000 1.0000
67.7400 141.0000 1.0000
67.7600 137.0000 1.0000
67.7800 123.0000 1.0000
67.8000 109.0000 1.0000
67.8200 131.0000 1.0000
67.8400 136.0000 1.0000
67.8600 122.0000 1.0000
67.8800 134.0000 1.0000
67.9000 114.0000 1.0000
67.9200 117.0000 1.0000
67.9400 138.0000 1.0000
67.9600 125.0000 1.0000
67.9800 125.0000 1.0000
68.0000 108.0000 1.0000
68.0200 120.0000 1.0000
68.0400 128.0000 1.0000
68.0600 136.0000 1.0000
68.0800 148.0000 1.0000
68.1000 117.0000 1.0000
68.1200 130.0000 1.0000
68.1400 119.0000 1.0000
68.1600 114.0000 1.0000
68.1800 123.0000 1.0000
68.2000 129.0000 1.0000
68.2200 100.0000 1.0000
68.2400 128.0000 1.0000
68.2600 121.0000 1.0000
68.2800 119.0000 1.0000
68.3000 124.0000 1.0000
68.3200 111.0000 1.0000
68.3400 126.0000 1.0000
68.3600 134.0000 1.0000
68.3800 154.0000 1.0000
68.4000 97.0000 1.0000
68.4200 115.0000 1.0000
68.4400 132.0000 1.0000
68.4600 109.0000 1.0000
68.4800 120.0000 1.0000
68.5000 133.0000 1.0000
68.5200 121.0000 1.0000
68.5400 133.0000 1.0000
68.5600 117.0000 1.0000
68.5800 126.0000 1.0000
68.6000 121.0000 1.0000
68.6200 123.0000 1.0000
68.6400 138.0000 1.0000
68.6600 112.0000 1.0000
68.6800 120.0000 1.0000
68.7000 126.0000 1.0000
68.7200 134.0000 1.0000
68.7400 129.0000 1.0000
68.7600 136.0000 1.0000
68.7800 123.0000 1.0000
68.8000 114.0000 1.0000
68.8200 113.0000 1.0000
68.8400 133.0000 1.0000
68.8600 150.0000 1.0000
68.8800 121.0000 1.0000
68.9000 116.0000 1.0000
68.9200 125.0000 1.0000
68.9400 125.0000 1.0000
68.9600 121.0000 1.0000
68.9800 106.0000 1.0000
69.0000 138.0000 1.0000
69.0200 124.0000 1.0000
69.0400 139.0000 1.0000
69.0600 125.0000 1.0000
69.0800 123.0000 1.0000
69.1000 131.0000 1.0000
69.1200 129.0000 1.0000
69.1400 143.0000 1.0000
69.1600 114.0000 1.0000
69.1800 118.0000 1.0000
69.2000 133.0000 1.0000
69.2200 141.0000 1.0000
69.2400 125.0000 1.0000
69.2600 127.0000 1.0000
69.2800 110.0000 1.0000
69.3000 113.0000 1.0000
69.3200 140.0000 1.0000
69.3400 135.0000 1.0000
69.3600 113.0000 1.0000
69.3800 126.0000 1.0000
69.4000 115.0000 1.0000
69.4200 108.0000 1.0000
69.4400 128.0000 1.0000
69.4600 116.0000 1.0000
69.4800 132.0000 1.0000
69.5000 131.0000 1.0000
69.5200 118.0000 1.0000
69.5400 94.0000 1.0000
69.5600 115.0000 1.0000
69.5800 125.0000 1.0000
69.6000 126.0000 1.0000
69.6200 115.0000 1.0000
69.6400 117.0000 1.0000
69.6600 106.0000 1.0000
69.6800 125.0000 1.0000
69.7000 117.0000 1.0000
69.7200 130.0000 1.0000
69.7400 127.0000 1.0000
69.7600 129.0000 1.0000
69.7800 114.0000 1.0000
69.8000 115.0000 1.0000
69.8200 105.0000 1.0000
69.8400 121.0000 1.0000
69.8600 137.0000 1.0000
69.8800 118.0000 1.0000
69.9000 133.0000 1.0000
69.9200 113.0000 1.0000
69.9400 139.0000 1.0000
69.9600 126.0000 1.0000
69.9800 131.0000 1.0000
70.0000 122.0000 1.0000
70.0200 139.0000 1.0000
70.0400 132.0000 1.0000
70.0600 129.0000 1.0000
70.0800 133.0000 1.0000
70.1000 117.0000 1.0000
70.1200 129.0000 1.0000
70.1400 115.0000 1.0000
70.1600 126.0000 1.0000
70.1800 129.0000 1.0000
70.2000 122.0000 1.0000
70.2200 104.0000 1.0000
70.2400 123.0000 1.0000
70.2600 125.0000 1.0000
70.2800 117.0000 1.0000
70.3000 116.0000 1.0000
70.3200 123.0000 1.0000
70.3400 111.0000 1.0000
70.3600 127.0000 1.0000
70.3800 133.0000 1.0000
70.4000 130.0000 1.0000
70.4200 111.0000 1.0000
70.4400 117.0000 1.0000
70.4600 126.0000 1.0000
70.4800 113.0000 1.0000
70.5000 143.0000 1.0000
70.5200 140.0000 1.0000
70.5400 127.0000 1.0000
70.5600 120.0000 1.0000
70.5800 123.0000 1.0000
70.6000 123.0000 1.0000
70.6200 120.0000 1.0000
70.6400 111.0000 1.0000
70.6600 125.0000 1.0000
70.6800 131.0000 1.0000
70.7000 128.0000 1.0000
70.7200 133.0000 1.0000
70.7400 116.0000 1.0000
70.7600 114.0000 1.0000
70.7800 109.0000 1.0000
70.8000 118.0000 1.0000
70.8200 124.0000 1.0000
70.8400 122.0000 1.0000
70.8600 119.0000 1.0000
70.8800 139.0000 1.0000
70.9000 109.0000 1.0000
70.9200 139.0000 1.0000
70.9400 116.0000 1.0000
70.9600 129.0000 1.0000
70.9800 122.0000 1.0000
71.0000 123.0000 1.0000
71.0200 123.0000 1.0000
71.0400 127.0000 1.0000
71.0600 133.0000 1.0000
71.0800 121.0000 1.0000
71.1000 139.0000 1.0000
71.1200 136.0000 1.0000
71.1400 124.0000 1.0000
71.1600 112.0000 1.0000
71.1800 130.0000 1.0000
71.2000 116.0000 1.0000
71.2200 125.0000 1.0000
71.2400 127.0000 1.0000
71.2600 112.0000 1.0000
71.2800 125.0000 1.0000
71.3000 132.0000 1.0000
71.3200 135.0000 1.0000
71.3400 126.0000 1.0000
71.3600 108.0000 1.0000
71.3800 93.0000 1.0000
71.4000 91.0000 1.0000
71.4200 103.0000 1.0000
71.4400 113.0000 1.0000
71.4600 116.0000 1.0000
71.4800 145.0000 1.0000
71.5000 131.0000 1.0000
71.5200 117.0000 1.0000
71.5400 124.0000 1.0000
71.5600 115.0000 1.0000
71.5800 125.0000 1.0000
71.6000 130.0000 1.0000
71.6200 108.0000 1.0000
71.6400 131.0000 1.0000
71.6600 122.0000 1.0000
71.6800 128.0000 1.0000
71.7000 123.0000 1.0000
71.7200 136.0000 1.0000
71.7400 126.0000 1.0000
71.7600 118.0000 1.0000
71.7800 138.0000 1.0000
71.8000 139.0000 1.0000
71.8200 119.0000 1.0000
71.8400 113.0000 1.0000
71.8600 109.0000 1.0000
71.8800 130.0000 1.0000
71.9000 98.0000 1.0000
71.9200 126.0000 1.0000
71.9400 128.0000 1.0000
71.9600 126.0000 1.0000
71.9800 117.0000 1.0000
72.0000 148.0000 1.0000
72.0200 108.0000 1.0000
72.0400 96.0000 1.0000
72.0600 140.0000 1.0000
72.0800 123.0000 1.0000
72.1000 133.0000 1.0000
72.1200 124.0000 1.0000
72.1400 132.0000 1.0000
72.1600 130.0000 1.0000
72.1800 120.0000 1.0000
72.2000 112.0000 1.0000
72.2200 116.0000 1.0000
72.2400 112.0000 1.0000
72.2600 109.0000 1.0000
72.2800 137.0000 1.0000
72.3000 109.0000 1.0000
72.3200 118.0000 1.0000
72.3400 134.0000 1.0000
72.3600 139.0000 1.0000
72.3800 108.0000 1.0000
72.4000 108.0000 1.0000
72.4200 100.0000 1.0000
72.4400 107.0000 1.0000
72.4600 130.0000 1.0000
72.4800 126.0000 1.0000
72.5000 138.0000 1.0000
72.5200 120.0000 1.0000
72.5400 126.0000 1.0000
72.5600 135.0000 1.0000
72.5800 126.0000 1.0000
72.6000 142.0000 1.0000
72.6200 115.0000 1.0000
72.6400 129.0000 1.0000
72.6600 131.0000 1.0000
72.6800 134.0000 1.0000
72.7000 126.0000 1.0000
72.7200 124.0000 1.0000
72.7400 132.0000 1.0000
72.7600 115.0000 1.0000
72.7800 121.0000 1.0000
72.8000 124.0000 1.0000
72.8200 115.0000 1.0000
72.8400 121.0000 1.0000
72.8600 108.0000 1.0000
72.8800 115.0000 1.0000
72.9000 112.0000 1.0000
72.9200 130.0000 1.0000
72.9400 110.0000 1.0000
72.9600 120.0000 1.0000
72.9800 111.0000 1.0000
73.0000 116.0000 1.0000
73.0200 121.0000 1.0000
73.0400 102.0000 1.0000
73.0600 129.0000 1.0000
73.0800 135.0000 1.0000
73.1000 139.0000 1.0000
73.1200 145.0000 1.0000
73.1400 100.0000 1.0000
73.1600 123.0000 1.0000
73.1800 101.0000 1.0000
73.2000 118.0000 1.0000
73.2200 117.0000 1.0000
73.2400 133.0000 1.0000
73.2600 115.0000 1.0000
73.2800 129.0000 1.0000
73.3000 119.0000 1.0000
73.3200 121.0000 1.0000
73.3400 132.0000 1.0000
73.3600 140.0000 1.0000
73.3800 146.0000 1.0000
73.4000 121.0000 1.0000
73.4200 126.0000 1.0000
73.4400 140.0000 1.0000
73.4600 138.0000 1.0000
73.4800 147.0000 1.0000
73.5000 119.0000 1.0000
73.5200 121.0000 1.0000
73.5400 126.0000 1.0000
73.5600 115.0000 1.0000
73.5800 131.0000 1.0000
73.6000 123.0000 1.0000
73.6200 119.0000 1.0000
73.6400 111.0000 1.0000
73.6600 110.0000 1.0000
73.6800 113.0000 1.0000
73.7000 121.0000 1.0000
73.7200 131.0000 1.0000
73.7400 118.0000 1.0000
73.7600 115.0000 1.0000
73.7800 114.0000 1.0000
73.8000 129.0000 1.0000
73.8200 106.0000 1.0000
73.8400 108.0000 1.0000
73.8600 134.0000 1.0000
73.8800 154.0000 1.0000
73.9000 133.0000 1.0000
73.9200 122.0000 1.0000
73.9400 133.0000 1.0000
73.9600 118.0000 1.0000
73.9800 137.0000 1.0000
74.0000 122.0000 1.0000
74.0200 120.0000 1.0000
74.0400 137.0000 1.0000
74.0600 111.0000 1.0000
74.0800 146.0000 1.0000
74.1000 122.0000 1.0000
74.1200 124.0000 1.0000
74.1400 117.0000 1.0000
74.1600 104.0000 1.0000
74.1800 126.0000 1.0000
74.2000 120.0000 1.0000
74.2200 111.0000 1.0000
74.2400 117.0000 1.0000
74.2600 119.0000 1.0000
74.2800 136.0000 1.0000
74.3000 109.0000 1.0000
74.3200 118.0000 1.0000
74.3400 115.0000 1.0000
74.3600 125.0000 1.0000
74.3800 137.0000 1.0000
74.4000 107.0000 1.0000
74.4200 141.0000 1.0000
74.4400 138.0000 1.0000
74.4600 130.0000 1.0000
74.4800 114.0000 1.0000
74.5000 136.0000 1.0000
74.5200 122.0000 1.0000
74.5400 126.0000 1.0000
74.5600 136.0000 1.0000
74.5800 126.0000 1.0000
74.6000 123.0000 1.0000
74.6200 111.0000 1.0000
74.6400 119.0000 1.0000
74.6600 116.0000 1.0000
74.6800 129.0000 1.0000
74.7000 124.0000 1.0000
74.7200 112.0000 1.0000
74.7400 122.0000 1.0000
74.7600 124.0000 1.0000
74.7800 121.0000 1.0000
74.8000 110.0000 1.0000
74.8200 133.0000 1.0000
74.8400 126.0000 1.0000
74.8600 123.0000 1.0000
74.8800 132.0000 1.0000
74.9000 112.0000 1.0000
74.9200 122.0000 1.0000
74.9400 143.0000 1.0000
74.9600 124.0000 1.0000
74.9800 132.0000 1.0000
75.0000 123.0000 1.0000
75.0200 131.0000 1.0000
75.0400 115.0000 1.0000
75.0600 127.0000 1.0000
75.0800 158.0000 1.0000
75.1000 95.0000 1.0000
75.1200 125.0000 1.0000
75.1400 137.0000 1.0000
75.1600 137.0000 1.0000
75.1800 139.0000 1.0000
75.2000 97.0000 1.0000
75.2200 143.0000 1.0000
75.2400 107.0000 1.0000
75.2600 123.0000 1.0000
75.2800 135.0000 1.0000
75.3000 114.0000 1.0000
75.3200 102.0000 1.0000
75.3400 155.0000 1.0000
75.3600 127.0000 1.0000
75.3800 109.0000 1.0000
75.4000 116.0000 1.0000
75.4200 129.0000 1.0000
75.4400 130.0000 1.0000
75.4600 144.0000 1.0000
75.4800 118.0000 1.0000
75.5000 125.0000 1.0000
75.5200 118.0000 1.0000
75.5400 144.0000 1.0000
75.5600 152.0000 1.0000
75.5800 143.0000 1.0000
75.6000 137.0000 1.0000
75.6200 123.0000 1.0000
75.6400 143.0000 1.0000
75.6600 116.0000 1.0000
75.6800 103.0000 1.0000
75.7000 124.0000 1.0000
75.7200 134.0000 1.0000
75.7400 122.0000 1.0000
75.7600 133.0000 1.0000
75.7800 116.0000 1.0000
75.8000 104.0000 1.0000
75.8200 131.0000 1.0000
75.8400 123.0000 1.0000
75.8600 127.0000 1.0000
75.8800 124.0000 1.0000
75.9000 131.0000 1.0000
75.9200 135.0000 1.0000
75.9400 110.0000 1.0000
75.9600 118.0000 1.0000
75.9800 132.0000 1.0000
76.0000 128.0000 1.0000
76.0200 139.0000 1.0000
76.0400 133.0000 1.0000
76.0600 119.0000 1.0000
76.0800 129.0000 1.0000
76.1000 128.0000 1.0000
76.1200 121.0000 1.0000
76.1400 138.0000 1.0000
76.1600 125.0000 1.0000
76.1800 118.0000 1.0000
76.2000 145.0000 1.0000
76.2200 119.0000 1.0000
76.2400 120.0000 1.0000
76.2600 130.0000 1.0000
76.2800 135.0000 1.0000
76.3000 139.0000 1.0000
76.3200 152.0000 1.0000
76.3400 142.0000 1.0000
76.3600 99.0000 1.0000
76.3800 131.0000 1.0000
76.4000 124.0000 1.0000
76.4200 127.0000 1.0000
76.4400 126.0000 1.0000
76.4600 133.0000 1.0000
76.4800 134.0000 1.0000
76.5000 114.0000 1.0000
76.5200 100.0000 1.0000
76.5400 148.0000 1.0000
76.5600 146.0000 1.0000
76.5800 145.0000 1.0000
76.6000 137.0000 1.0000
76.6200 132.0000 1.0000
76.6400 116.0000 1.0000
76.6600 158.0000 1.0000
76.6800 129.0000 1.0000
76.7000 128.0000 1.0000
76.7200 141.0000 1.0000
76.7400 126.0000 1.0000
76.7600 105.0000 1.0000
76.7800 114.0000 1.0000
76.8000 118.0000 1.0000
76.8200 117.0000 1.0000
76.8400 134.0000 1.0000
76.8600 156.0000 1.0000
76.8800 111.0000 1.0000
76.9000 136.0000 1.0000
76.9200 127.0000 1.0000
76.9400 139.0000 1.0000
76.9600 132.0000 1.0000
76.9800 132.0000 1.0000
77.0000 129.0000 1.0000
77.0200 138.0000 1.0000
77.0400 136.0000 1.0000
77.0600 123.0000 1.0000
77.0800 149.0000 1.0000
77.1000 130.0000 1.0000
77.1200 138.0000 1.0000
77.1400 118.0000 1.0000
77.1600 119.0000 1.0000
77.1800 123.0000 1.0000
77.2000 116.0000 1.0000
77.2200 119.0000 1.0000
77.2400 121.0000 1.0000
77.2600 131.0000 1.0000
77.2800 135.0000 1.0000
77.3000 124.0000 1.0000
77.3200 134.0000 1.0000
77.3400 136.0000 1.0000
77.3600 136.0000 1.0000
77.3800 144.0000 1.0000
77.4000 119.0000 1.0000
77.4200 121.0000 1.0000
77.4400 148.0000 1.0000
77.4600 150.0000 1.0000
77.4800 144.0000 1.0000
77.5000 108.0000 1.0000
77.5200 135.0000 1.0000
77.5400 130.0000 1.0000
77.5600 123.0000 1.0000
77.5800 120.0000 1.0000
77.6000 109.0000 1.0000
77.6200 106.0000 1.0000
77.6400 134.0000 1.0000
77.6600 147.0000 1.0000
77.6800 160.0000 1.0000
77.7000 129.0000 1.0000
77.7200 126.0000 1.0000
77.7400 152.0000 1.0000
77.7600 140.0000 1.0000
77.7800 139.0000 1.0000
77.8000 149.0000 1.0000
77.8200 129.0000 1.0000
77.8400 133.0000 1.0000
77.8600 126.0000 1.0000
77.8800 129.0000 1.0000
77.9000 139.0000 1.0000
77.9200 133.0000 1.0000
77.9400 130.0000 1.0000
77.9600 149.0000 1.0000
77.9800 131.0000 1.0000
78.0000 134.0000 1.0000
78.0200 143.0000 1.0000
78.0400 138.0000 1.0000
78.0600 144.0000 1.0000
78.0800 152.0000 1.0000
78.1000 121.0000 1.0000
78.1200 129.0000 1.0000
78.1400 147.0000 1.0000
78.1600 151.0000 1.0000
78.1800 144.0000 1.0000
78.2000 139.0000 1.0000
78.2200 118.0000 1.0000
78.2400 137.0000 1.0000
78.2600 164.0000 1.0000
78.2800 151.0000 1.0000
78.3000 145.0000 1.0000
78.3200 141.0000 1.0000
78.3400 133.0000 1.0000
78.3600 159.0000 1.0000
78.3800 139.0000 1.0000
78.4000 137.0000 1.0000
78.4200 134.0000 1.0000
78.4400 148.0000 1.0000
78.4600 147.0000 1.0000
78.4800 147.0000 1.0000
78.5000 129.0000 1.0000
78.5200 138.0000 1.0000
78.5400 129.0000 1.0000
78.5600 123.0000 1.0000
78.5800 159.0000 1.0000
78.6000 163.0000 1.0000
78.6200 152.0000 1.0000
78.6400 118.0000 1.0000
78.6600 157.0000 1.0000
78.6800 141.0000 1.0000
78.7000 142.0000 1.0000
78.7200 147.0000 1.0000
78.7400 160.0000 1.0000
78.7600 135.0000 1.0000
78.7800 140.0000 1.0000
78.8000 131.0000 1.0000
78.8200 145.0000 1.0000
78.8400 145.0000 1.0000
78.8600 140.0000 1.0000
78.8800 142.0000 1.0000
78.9000 154.0000 1.0000
78.9200 125.0000 1.0000
78.9400 120.0000 1.0000
78.9600 151.0000 1.0000
78.9800 134.0000 1.0000
79.0000 149.0000 1.0000
79.0200 153.0000 1.0000
79.0400 154.0000 1.0000
79.0600 130.0000 1.0000
79.0800 139.0000 1.0000
79.1000 149.0000 1.0000
79.1200 151.0000 1.0000
79.1400 131.0000 1.0000
79.1600 163.0000 1.0000
79.1800 151.0000 1.0000
79.2000 144.0000 1.0000
79.2200 147.0000 1.0000
79.2400 141.0000 1.0000
79.2600 151.0000 1.0000
79.2800 152.0000 1.0000
79.3000 136.0000 1.0000
79.3200 133.0000 1.0000
79.3400 132.0000 1.0000
79.3600 145.0000 1.0000
79.3800 156.0000 1.0000
79.4000 130.0000 1.0000
79.4200 135.0000 1.0000
79.4400 110.0000 1.0000
79.4600 154.0000 1.0000
79.4800 147.0000 1.0000
79.5000 151.0000 1.0000
79.5200 140.0000 1.0000
79.5400 139.0000 1.0000
79.5600 143.0000 1.0000
79.5800 133.0000 1.0000
79.6000 144.0000 1.0000
79.6200 141.0000 1.0000
79.6400 153.0000 1.0000
79.6600 145.0000 1.0000
79.6800 129.0000 1.0000
79.7000 138.0000 1.0000
79.7200 165.0000 1.0000
79.7400 172.0000 1.0000
79.7600 152.0000 1.0000
79.7800 132.0000 1.0000
79.8000 155.0000 1.0000
79.8200 165.0000 1.0000
79.8400 156.0000 1.0000
79.8600 145.0000 1.0000
79.8800 161.0000 1.0000
79.9000 144.0000 1.0000
79.9200 127.0000 1.0000
79.9400 138.0000 1.0000
79.9600 154.0000 1.0000
79.9800 149.0000 1.0000
80.0000 136.0000 1.0000
*RAS_INT_END
*RAS_DATA_END
