*RAS_DATA_START
*RAS_HEADER_START
*DISP_FMT_X "%.2f"
*DISP_FMT_Y "%.0f"
*DISP_FULLSCALE "345820.0000000001"
*DISP_LINE_COLOR "255.0000000000"
*DISP_LINE_STYLE "0.0000000000"
*DISP_LINE_WIDTH "0.2500000000"
*DISP_NOTE "Collected Data-2"
*DISP_OFFSET_Y "0.0000000000"
*DISP_PEAKSEARCH_UNIT_Y "cps"
*DISP_RANGE_BOTTOM "0.0000000000"
*DISP_RANGE_LEFT "10.0000000000"
*DISP_RANGE_LOGCUTOFF "0.0100000000"
*DISP_RANGE_RIGHT "80.0000000000"
*DISP_RANGE_TOP "345820.0000000001"
*DISP_SCALE_MODE_Y "0.0000000000"
*DISP_TAB_NAME "Theta/2-Theta"
*DISP_TITLE_Y "Intensity"
*DISP_UNIT_Y "cps"
*DISP_WINDOW_NAME "MSG_MACROENGINE"
*FILE_COMMENT " "
*FILE_MD5 ""
*FILE_MEMO " "
*FILE_OPERATOR "administrator"
*FILE_SAMPLE " "
*FILE_TYPE "RAS_RAW"
*FILE_USERGROUP "System Manager"
*FILE_VERSION "1.0000000000"
*HW_ATTACHMENT_ID "ATT0025"
*HW_ATTACHMENT_NAME "標準|Standard"
*HW_COUNTER_ID-0 "CUT0025"
*HW_COUNTER_ID-1 "CUT0020"
*HW_COUNTER_ID-2 "CUT0020"
*HW_COUNTER_ID-3 "CSL0021"
*HW_COUNTER_ID-4 "CMC0021"
*HW_COUNTER_NAME-0 "D/teX Ultra|D/teX Ultra"
*HW_COUNTER_NAME-1 "None|None"
*HW_COUNTER_NAME-2 "None|None"
*HW_COUNTER_NAME-3 "BBM|BBM"
*HW_COUNTER_NAME-4 "検出器モノクロメータ|Detector monochromator"
*HW_COUNTER_SELECT_NAME "D/teX Ultra|D/teX Ultra"
*HW_GONIOMETER_ID "GON0023"
*HW_GONIOMETER_NAME "SmartLab|SmartLab"
*HW_GONIOMETER_RADIUS-0 "90.0"
*HW_GONIOMETER_RADIUS-1 "114.0"
*HW_GONIOMETER_RADIUS-2 "190.0"
*HW_GONIOMETER_RADIUS-3 "300.0"
*HW_GONIOMETER_RADIUS-4 "187.0"
*HW_GONIOMETER_RADIUS-5 "300.0"
*HW_GONIOMETER_RADIUS-6 "113.0"
*HW_GONIOMETER_RADIUS-7 "331.0"
*HW_I_OPT_ID-0 "CBO0021"
*HW_I_OPT_ID-1 "ICR0023"
*HW_I_OPT_ID-2 "ISL0021"
*HW_I_OPT_ID-3 "ISO0021"
*HW_I_OPT_ID-4 "IAD0021"
*HW_I_OPT_ID-5 "IPR0001"
*HW_I_OPT_NAME-0 "CBOユニット|CBO unit"
*HW_I_OPT_NAME-1 "標準入射光学ユニット|Standard incident optical unit"
*HW_I_OPT_NAME-2 "標準入射スリットボックス|Standard incident slit box"
*HW_I_OPT_NAME-3 "入射平行スリット|Incident parallel slit"
*HW_I_OPT_NAME-4 "長手制限スリット|Length limiting slit"
*HW_I_OPT_NAME-5 "None|None"
*HW_R_ATTENUATER_AUTOMODE "0"
*HW_R_OPT_ID-0 "RSS0021"
*HW_R_OPT_ID-1 "RCR0023"
*HW_R_OPT_ID-2 "RSO0021"
*HW_R_OPT_ID-3 "RRS0021"
*HW_R_OPT_ID-4 "ATN0021"
*HW_R_OPT_ID-5 "RFL0021"
*HW_R_OPT_ID-6 "RAD0021"
*HW_R_OPT_NAME-0 "標準受光スリットボックス1|Standard receiving slit box # 1"
*HW_R_OPT_NAME-1 "標準受光光学ユニット1|Standard receiving unit # 1"
*HW_R_OPT_NAME-2 "標準受光光学ユニット2|Standard receiving optical unit # 2"
*HW_R_OPT_NAME-3 "標準受光スリットボックス2|Standard receiving slit box # 2"
*HW_R_OPT_NAME-4 "標準アッテネータ|Standard Attenuator"
*HW_R_OPT_NAME-5 "Cu Kβ|Cu K-beta"
*HW_R_OPT_NAME-6 "調整用受光スリット|Alignment receiving slit"
*HW_SAMPLE_HOLDER_ID "SMP0023"
*HW_SAMPLE_HOLDER_NAME "標準Zステージ|Standard Z stage"
*HW_XG_CURRENT_MAX "200"
*HW_XG_CURRENT_MIN "10"
*HW_XG_CURRENT_RESOLUTION "2"
*HW_XG_CURRENT_UNIT "mA"
*HW_XG_FOCUS ""
*HW_XG_FOCUS_TYPE "Normal"
*HW_XG_ID ""
*HW_XG_NAME "9kW 開放管(45kV 200mA ID:1700)|9kW Rotating anode(45kV 200mA ID:1700)"
*HW_XG_TARGET_ATOMIC_NUMBER "29.0000000000"
*HW_XG_TARGET_NAME "Cu"
*HW_XG_TYPE "Rota"
*HW_XG_VOLTAGE_MAX "45"
*HW_XG_VOLTAGE_MIN "20"
*HW_XG_VOLTAGE_RESOLUTION "2"
*HW_XG_VOLTAGE_UNIT "kV"
*HW_XG_WATT_MAX "9"
*HW_XG_WATT_UNIT "kW"
*HW_XG_WAVE_LENGTH_ALPHA1 "1.540593"
*HW_XG_WAVE_LENGTH_ALPHA2 "1.544414"
*HW_XG_WAVE_LENGTH_BETA "1.392250"
*MEAS_COND_AXIS_NAME-0 "Theta/2-Theta"
*MEAS_COND_AXIS_NAME-1 "2-Theta"
*MEAS_COND_AXIS_NAME-2 "Omega"
*MEAS_COND_AXIS_NAME-3 "Z"
*MEAS_COND_AXIS_NAME-4 "2-Theta/Omega"
*MEAS_COND_AXIS_NAME-5 "Theta_s"
*MEAS_COND_AXIS_NAME-6 "Theta_d"
*MEAS_COND_AXIS_NAME-7 "Ts"
*MEAS_COND_AXIS_NAME-8 "CBO selection slit"
*MEAS_COND_AXIS_NAME-9 "M"
*MEAS_COND_AXIS_NAME-10 "Incident parallel slit"
*MEAS_COND_AXIS_NAME-11 "Incident slit"
*MEAS_COND_AXIS_NAME-12 ""
*MEAS_COND_AXIS_NAME-13 "Zs"
*MEAS_COND_AXIS_NAME-14 "Incident monochromator"
*MEAS_COND_AXIS_NAME-15 "Length limiting slit"
*MEAS_COND_AXIS_NAME-16 "Center slit"
*MEAS_COND_AXIS_NAME-17 "Filter"
*MEAS_COND_AXIS_NAME-18 "Receiving slit # 1"
*MEAS_COND_AXIS_NAME-19 "Receiving slit # 2"
*MEAS_COND_AXIS_NAME-20 "Receiving optical device"
*MEAS_COND_AXIS_NAME-21 "Receiving parallel slit"
*MEAS_COND_AXIS_NAME-22 "Alignment receiving slit"
*MEAS_COND_AXIS_NAME-23 ""
*MEAS_COND_AXIS_NAME-24 ""
*MEAS_COND_AXIS_NAME-25 "Zd"
*MEAS_COND_AXIS_NAME-26 "Attenuator"
*MEAS_COND_AXIS_NAME-27 "Diffracted beam monochromator"
*MEAS_COND_AXIS_NAME-28 "Monochromator slit"
*MEAS_COND_AXIS_NAME-29 "Primary beam"
*MEAS_COND_AXIS_NAME-30 "PHA"
*MEAS_COND_AXIS_NAME_INTERNAL-0 "TwoThetaTheta"
*MEAS_COND_AXIS_NAME_INTERNAL-1 "TwoTheta"
*MEAS_COND_AXIS_NAME_INTERNAL-2 "Omega"
*MEAS_COND_AXIS_NAME_INTERNAL-3 "Z"
*MEAS_COND_AXIS_NAME_INTERNAL-4 "TwoThetaOmega"
*MEAS_COND_AXIS_NAME_INTERNAL-5 "ThetaS"
*MEAS_COND_AXIS_NAME_INTERNAL-6 "ThetaD"
*MEAS_COND_AXIS_NAME_INTERNAL-7 "Ts"
*MEAS_COND_AXIS_NAME_INTERNAL-8 "CBO"
*MEAS_COND_AXIS_NAME_INTERNAL-9 "CBO-M"
*MEAS_COND_AXIS_NAME_INTERNAL-10 "IncidentSollerSlit"
*MEAS_COND_AXIS_NAME_INTERNAL-11 "IncidentSlitBox"
*MEAS_COND_AXIS_NAME_INTERNAL-12 "IncidentSlitBox-_Axis"
*MEAS_COND_AXIS_NAME_INTERNAL-13 "Zs"
*MEAS_COND_AXIS_NAME_INTERNAL-14 "IncidentMonochromator"
*MEAS_COND_AXIS_NAME_INTERNAL-15 "IncidentAxdSlit"
*MEAS_COND_AXIS_NAME_INTERNAL-16 "CenterSlit"
*MEAS_COND_AXIS_NAME_INTERNAL-17 "Filter"
*MEAS_COND_AXIS_NAME_INTERNAL-18 "ReceivingSlitBox1"
*MEAS_COND_AXIS_NAME_INTERNAL-19 "ReceivingSlitBox2"
*MEAS_COND_AXIS_NAME_INTERNAL-20 "ReceivingOptics"
*MEAS_COND_AXIS_NAME_INTERNAL-21 "ReceivingSollerSlit"
*MEAS_COND_AXIS_NAME_INTERNAL-22 "ReceivingAxdSlit"
*MEAS_COND_AXIS_NAME_INTERNAL-23 "ReceivingSlitBox1-_Axis"
*MEAS_COND_AXIS_NAME_INTERNAL-24 "ReceivingSlitBox2-_Axis"
*MEAS_COND_AXIS_NAME_INTERNAL-25 "ReceivingSlitBox2-Zd"
*MEAS_COND_AXIS_NAME_INTERNAL-26 "Attenuator"
*MEAS_COND_AXIS_NAME_INTERNAL-27 "CounterMonochromator"
*MEAS_COND_AXIS_NAME_INTERNAL-28 "CounterSlit"
*MEAS_COND_AXIS_NAME_INTERNAL-29 "IncidentPrimary"
*MEAS_COND_AXIS_NAME_INTERNAL-30 "PHA"
*MEAS_COND_AXIS_NAME_MAGICNO-0 "83951616.0000000000"
*MEAS_COND_AXIS_NAME_MAGICNO-1 "268632064.0000000000"
*MEAS_COND_AXIS_NAME_MAGICNO-2 "268500992.0000000000"
*MEAS_COND_AXIS_NAME_MAGICNO-3 "285278208.0000000000"
*MEAS_COND_AXIS_NAME_MAGICNO-4 "83951616.0000000000"
*MEAS_COND_AXIS_NAME_MAGICNO-5 "131072.0000000000"
*MEAS_COND_AXIS_NAME_MAGICNO-6 "131072.0000000000"
*MEAS_COND_AXIS_NAME_MAGICNO-7 "318898176.0000000000"
*MEAS_COND_AXIS_NAME_MAGICNO-8 "20971521.0000000000"
*MEAS_COND_AXIS_NAME_MAGICNO-9 "285343744.0000000000"
*MEAS_COND_AXIS_NAME_MAGICNO-10 "20971521.0000000000"
*MEAS_COND_AXIS_NAME_MAGICNO-11 "22020097.0000000000"
*MEAS_COND_AXIS_NAME_MAGICNO-12 "25165824.0000000000"
*MEAS_COND_AXIS_NAME_MAGICNO-13 "318898176.0000000000"
*MEAS_COND_AXIS_NAME_MAGICNO-14 "1.0000000000"
*MEAS_COND_AXIS_NAME_MAGICNO-15 "20971521.0000000000"
*MEAS_COND_AXIS_NAME_MAGICNO-16 "20971521.0000000000"
*MEAS_COND_AXIS_NAME_MAGICNO-17 "20971521.0000000000"
*MEAS_COND_AXIS_NAME_MAGICNO-18 "23068673.0000000000"
*MEAS_COND_AXIS_NAME_MAGICNO-19 "23068673.0000000000"
*MEAS_COND_AXIS_NAME_MAGICNO-20 "20971521.0000000000"
*MEAS_COND_AXIS_NAME_MAGICNO-21 "20971521.0000000000"
*MEAS_COND_AXIS_NAME_MAGICNO-22 "20971521.0000000000"
*MEAS_COND_AXIS_NAME_MAGICNO-23 "25165824.0000000000"
*MEAS_COND_AXIS_NAME_MAGICNO-24 "25165824.0000000000"
*MEAS_COND_AXIS_NAME_MAGICNO-25 "285343744.0000000000"
*MEAS_COND_AXIS_NAME_MAGICNO-26 "17301505.0000000000"
*MEAS_COND_AXIS_NAME_MAGICNO-27 "20971521.0000000000"
*MEAS_COND_AXIS_NAME_MAGICNO-28 "20971521.0000000000"
*MEAS_COND_AXIS_NAME_MAGICNO-29 "20971521.0000000000"
*MEAS_COND_AXIS_NAME_MAGICNO-30 "0.0000000000"
*MEAS_COND_AXIS_OFFSET-0 "-"
*MEAS_COND_AXIS_OFFSET-1 "0.2295000000"
*MEAS_COND_AXIS_OFFSET-2 "0.6931000000"
*MEAS_COND_AXIS_OFFSET-3 "-"
*MEAS_COND_AXIS_OFFSET-4 "-"
*MEAS_COND_AXIS_OFFSET-5 "0.6931000000"
*MEAS_COND_AXIS_OFFSET-6 "-0.4636000000"
*MEAS_COND_AXIS_OFFSET-7 "-"
*MEAS_COND_AXIS_OFFSET-8 "-"
*MEAS_COND_AXIS_OFFSET-9 "-"
*MEAS_COND_AXIS_OFFSET-10 "-"
*MEAS_COND_AXIS_OFFSET-11 "-"
*MEAS_COND_AXIS_OFFSET-12 "-"
*MEAS_COND_AXIS_OFFSET-13 "-"
*MEAS_COND_AXIS_OFFSET-14 "-"
*MEAS_COND_AXIS_OFFSET-15 "-"
*MEAS_COND_AXIS_OFFSET-16 "-"
*MEAS_COND_AXIS_OFFSET-17 "-"
*MEAS_COND_AXIS_OFFSET-18 "-"
*MEAS_COND_AXIS_OFFSET-19 "-"
*MEAS_COND_AXIS_OFFSET-20 "-"
*MEAS_COND_AXIS_OFFSET-21 "-"
*MEAS_COND_AXIS_OFFSET-22 "-"
*MEAS_COND_AXIS_OFFSET-23 "-"
*MEAS_COND_AXIS_OFFSET-24 "-"
*MEAS_COND_AXIS_OFFSET-25 "-"
*MEAS_COND_AXIS_OFFSET-26 "-"
*MEAS_COND_AXIS_OFFSET-27 "-"
*MEAS_COND_AXIS_OFFSET-28 "-"
*MEAS_COND_AXIS_OFFSET-29 "-"
*MEAS_COND_AXIS_OFFSET-30 "-"
*MEAS_COND_AXIS_POSITION-0 "0.0000000000"
*MEAS_COND_AXIS_POSITION-1 "0.0000000000"
*MEAS_COND_AXIS_POSITION-2 "0.0000000000"
*MEAS_COND_AXIS_POSITION-3 "0.0000000000"
*MEAS_COND_AXIS_POSITION-4 "0.0000000000"
*MEAS_COND_AXIS_POSITION-5 "0.0000000000"
*MEAS_COND_AXIS_POSITION-6 "0.0000000000"
*MEAS_COND_AXIS_POSITION-7 "-0.1069400000"
*MEAS_COND_AXIS_POSITION-8 "BB"
*MEAS_COND_AXIS_POSITION-9 "0.0000000000"
*MEAS_COND_AXIS_POSITION-10 "Soller_slit_5.0deg"
*MEAS_COND_AXIS_POSITION-11 "2/3deg"
*MEAS_COND_AXIS_POSITION-12 "2.2088000000"
*MEAS_COND_AXIS_POSITION-13 "0.6687500000"
*MEAS_COND_AXIS_POSITION-14 "0.0000000000"
*MEAS_COND_AXIS_POSITION-15 "10.0mm"
*MEAS_COND_AXIS_POSITION-16 "None"
*MEAS_COND_AXIS_POSITION-17 "Cu_K-beta"
*MEAS_COND_AXIS_POSITION-18 "20.000mm"
*MEAS_COND_AXIS_POSITION-19 "20.000mm"
*MEAS_COND_AXIS_POSITION-20 "No_unit"
*MEAS_COND_AXIS_POSITION-21 "Soller_slit_5.0deg"
*MEAS_COND_AXIS_POSITION-22 "None"
*MEAS_COND_AXIS_POSITION-23 "20.0000000000"
*MEAS_COND_AXIS_POSITION-24 "20.0000000000"
*MEAS_COND_AXIS_POSITION-25 "0.2378100000"
*MEAS_COND_AXIS_POSITION-26 "Open"
*MEAS_COND_AXIS_POSITION-27 "None"
*MEAS_COND_AXIS_POSITION-28 "None"
*MEAS_COND_AXIS_POSITION-29 "None"
*MEAS_COND_AXIS_POSITION-30 "35.0000000000"
*MEAS_COND_AXIS_UNIT-0 "deg"
*MEAS_COND_AXIS_UNIT-1 "deg"
*MEAS_COND_AXIS_UNIT-2 "deg"
*MEAS_COND_AXIS_UNIT-3 "mm"
*MEAS_COND_AXIS_UNIT-4 "deg"
*MEAS_COND_AXIS_UNIT-5 "deg"
*MEAS_COND_AXIS_UNIT-6 "deg"
*MEAS_COND_AXIS_UNIT-7 "mm"
*MEAS_COND_AXIS_UNIT-8 ""
*MEAS_COND_AXIS_UNIT-9 "pulse"
*MEAS_COND_AXIS_UNIT-10 ""
*MEAS_COND_AXIS_UNIT-11 ""
*MEAS_COND_AXIS_UNIT-12 "mm"
*MEAS_COND_AXIS_UNIT-13 "mm"
*MEAS_COND_AXIS_UNIT-14 ""
*MEAS_COND_AXIS_UNIT-15 ""
*MEAS_COND_AXIS_UNIT-16 ""
*MEAS_COND_AXIS_UNIT-17 ""
*MEAS_COND_AXIS_UNIT-18 ""
*MEAS_COND_AXIS_UNIT-19 ""
*MEAS_COND_AXIS_UNIT-20 ""
*MEAS_COND_AXIS_UNIT-21 ""
*MEAS_COND_AXIS_UNIT-22 ""
*MEAS_COND_AXIS_UNIT-23 "mm"
*MEAS_COND_AXIS_UNIT-24 "mm"
*MEAS_COND_AXIS_UNIT-25 "mm"
*MEAS_COND_AXIS_UNIT-26 ""
*MEAS_COND_AXIS_UNIT-27 ""
*MEAS_COND_AXIS_UNIT-28 ""
*MEAS_COND_AXIS_UNIT-29 ""
*MEAS_COND_AXIS_UNIT-30 "div"
*MEAS_COND_COUNTER_CNTLOSS_CORR "0.0000000000"
*MEAS_COND_COUNTER_PHABASE "35.0000000000"
*MEAS_COND_COUNTER_PHAWINDOW "15.0000000000"
*MEAS_COND_COUNTER_PHA_UNIT "div"
*MEAS_COND_COUNTER_TAUDIFF "30.0000000000"
*MEAS_COND_COUNTER_TAUINT "0.0000000000"
*MEAS_COND_IRRADIATION_MODE "OFF"
*MEAS_COND_IRRADIATION_WIDTH ""
*MEAS_COND_OPT_ATTR "Bragg-Brentano focusing"
*MEAS_COND_OPT_NAME "@BB focusing"
*MEAS_COND_UNSYMMETRIC_MODE "OFF"
*MEAS_COND_XG_CURRENT "150.0000000000"
*MEAS_COND_XG_VOLTAGE "40.0000000000"
*MEAS_COND_XG_WAVE_TYPE "Ka"
*MEAS_DATA_COUNT "3501.0000000000"
*MEAS_SCAN_AXIS_X "Theta/2-Theta"
*MEAS_SCAN_AXIS_X_INTERNAL "TwoThetaTheta"
*MEAS_SCAN_END_TIME "06/01/26 15:09:23"
*MEAS_SCAN_MODE "CONTINUOUS"
*MEAS_SCAN_MONITOR "0"
*MEAS_SCAN_RESOLUTION_X "0.0002"
*MEAS_SCAN_SPEED "10.0"
*MEAS_SCAN_SPEED_UNIT "deg/min"
*MEAS_SCAN_START "10.0000000000"
*MEAS_SCAN_START_TIME "06/01/26 15:01:43"
*MEAS_SCAN_STEP "0.0200000000"
*MEAS_SCAN_STOP "80.0000000000"
*MEAS_SCAN_UNIT_X "deg"
*MEAS_SCAN_UNIT_Y "counts"
*RAS_HEADER_END
*RAS_INT_START
10.0000 6207.0000 1.0000
10.0200 6327.0000 1.0000
10.0400 6230.0000 1.0000
10.0600 6167.0000 1.0000
10.0800 6043.0000 1.0000
10.1000 6173.0000 1.0000
10.1200 6053.0000 1.0000
10.1400 6157.0000 1.0000
10.1600 6260.0000 1.0000
10.1800 6074.0000 1.0000
10.2000 6115.0000 1.0000
10.2200 5944.0000 1.0000
10.2400 6060.0000 1.0000
10.2600 6127.0000 1.0000
10.2800 6017.0000 1.0000
10.3000 5996.0000 1.0000
10.3200 6053.0000 1.0000
10.3400 5923.0000 1.0000
10.3600 5972.0000 1.0000
10.3800 6049.0000 1.0000
10.4000 6093.0000 1.0000
10.4200 5925.0000 1.0000
10.4400 5967.0000 1.0000
10.4600 6061.0000 1.0000
10.4800 6018.0000 1.0000
10.5000 5978.0000 1.0000
10.5200 5993.0000 1.0000
10.5400 5878.0000 1.0000
10.5600 5953.0000 1.0000
10.5800 5933.0000 1.0000
10.6000 6012.0000 1.0000
10.6200 5919.0000 1.0000
10.6400 5785.0000 1.0000
10.6600 5907.0000 1.0000
10.6800 5896.0000 1.0000
10.7000 5869.0000 1.0000
10.7200 5775.0000 1.0000
10.7400 5835.0000 1.0000
10.7600 5901.0000 1.0000
10.7800 5699.0000 1.0000
10.8000 5759.0000 1.0000
10.8200 5822.0000 1.0000
10.8400 5748.0000 1.0000
10.8600 5745.0000 1.0000
10.8800 5632.0000 1.0000
10.9000 5620.0000 1.0000
10.9200 5751.0000 1.0000
10.9400 5832.0000 1.0000
10.9600 5722.0000 1.0000
10.9800 5609.0000 1.0000
11.0000 5769.0000 1.0000
11.0200 5691.0000 1.0000
11.0400 5555.0000 1.0000
11.0600 5707.0000 1.0000
11.0800 5728.0000 1.0000
11.1000 5703.0000 1.0000
11.1200 5659.0000 1.0000
11.1400 5687.0000 1.0000
11.1600 5827.0000 1.0000
11.1800 5621.0000 1.0000
11.2000 5693.0000 1.0000
11.2200 5624.0000 1.0000
11.2400 5591.0000 1.0000
11.2600 5599.0000 1.0000
11.2800 5525.0000 1.0000
11.3000 5474.0000 1.0000
11.3200 5554.0000 1.0000
11.3400 5526.0000 1.0000
11.3600 5627.0000 1.0000
11.3800 5473.0000 1.0000
11.4000 5569.0000 1.0000
11.4200 5464.0000 1.0000
11.4400 5518.0000 1.0000
11.4600 5477.0000 1.0000
11.4800 5599.0000 1.0000
11.5000 5519.0000 1.0000
11.5200 5393.0000 1.0000
11.5400 5531.0000 1.0000
11.5600 5547.0000 1.0000
11.5800 5511.0000 1.0000
11.6000 5422.0000 1.0000
11.6200 5394.0000 1.0000
11.6400 5466.0000 1.0000
11.6600 5338.0000 1.0000
11.6800 5379.0000 1.0000
11.7000 5427.0000 1.0000
11.7200 5374.0000 1.0000
11.7400 5304.0000 1.0000
11.7600 5359.0000 1.0000
11.7800 5353.0000 1.0000
11.8000 5343.0000 1.0000
11.8200 5379.0000 1.0000
11.8400 5298.0000 1.0000
11.8600 5258.0000 1.0000
11.8800 5373.0000 1.0000
11.9000 5347.0000 1.0000
11.9200 5343.0000 1.0000
11.9400 5383.0000 1.0000
11.9600 5225.0000 1.0000
11.9800 5288.0000 1.0000
12.0000 5299.0000 1.0000
12.0200 5204.0000 1.0000
12.0400 5391.0000 1.0000
12.0600 5128.0000 1.0000
12.0800 5235.0000 1.0000
12.1000 5239.0000 1.0000
12.1200 5226.0000 1.0000
12.1400 5244.0000 1.0000
12.1600 5290.0000 1.0000
12.1800 5163.0000 1.0000
12.2000 5099.0000 1.0000
12.2200 5289.0000 1.0000
12.2400 5245.0000 1.0000
12.2600 5150.0000 1.0000
12.2800 5059.0000 1.0000
12.3000 5146.0000 1.0000
12.3200 5030.0000 1.0000
12.3400 5093.0000 1.0000
12.3600 5142.0000 1.0000
12.3800 5236.0000 1.0000
12.4000 5114.0000 1.0000
12.4200 5089.0000 1.0000
12.4400 4989.0000 1.0000
12.4600 4959.0000 1.0000
12.4800 4890.0000 1.0000
12.5000 5229.0000 1.0000
12.5200 5216.0000 1.0000
12.5400 4986.0000 1.0000
12.5600 5173.0000 1.0000
12.5800 5079.0000 1.0000
12.6000 5075.0000 1.0000
12.6200 5036.0000 1.0000
12.6400 5130.0000 1.0000
12.6600 5048.0000 1.0000
12.6800 5107.0000 1.0000
12.7000 5011.0000 1.0000
12.7200 4930.0000 1.0000
12.7400 5078.0000 1.0000
12.7600 5033.0000 1.0000
12.7800 5211.0000 1.0000
12.8000 5047.0000 1.0000
12.8200 4993.0000 1.0000
12.8400 4882.0000 1.0000
12.8600 4948.0000 1.0000
12.8800 4929.0000 1.0000
12.9000 4982.0000 1.0000
12.9200 4946.0000 1.0000
12.9400 4970.0000 1.0000
12.9600 4945.0000 1.0000
12.9800 4971.0000 1.0000
13.0000 4931.0000 1.0000
13.0200 4944.0000 1.0000
13.0400 4852.0000 1.0000
13.0600 4965.0000 1.0000
13.0800 4847.0000 1.0000
13.1000 4983.0000 1.0000
13.1200 4786.0000 1.0000
13.1400 4786.0000 1.0000
13.1600 4855.0000 1.0000
13.1800 4900.0000 1.0000
13.2000 4906.0000 1.0000
13.2200 4870.0000 1.0000
13.2400 4851.0000 1.0000
13.2600 4923.0000 1.0000
13.2800 4829.0000 1.0000
13.3000 4967.0000 1.0000
13.3200 4871.0000 1.0000
13.3400 4898.0000 1.0000
13.3600 4779.0000 1.0000
13.3800 4847.0000 1.0000
13.4000 4914.0000 1.0000
13.4200 4847.0000 1.0000
13.4400 4826.0000 1.0000
13.4600 4915.0000 1.0000
13.4800 4816.0000 1.0000
13.5000 4914.0000 1.0000
13.5200 4854.0000 1.0000
13.5400 4815.0000 1.0000
13.5600 4708.0000 1.0000
13.5800 4709.0000 1.0000
13.6000 4766.0000 1.0000
13.6200 4754.0000 1.0000
13.6400 4775.0000 1.0000
13.6600 4706.0000 1.0000
13.6800 4795.0000 1.0000
13.7000 4672.0000 1.0000
13.7200 4722.0000 1.0000
13.7400 4816.0000 1.0000
13.7600 4730.0000 1.0000
13.7800 4694.0000 1.0000
13.8000 4778.0000 1.0000
13.8200 4765.0000 1.0000
13.8400 4679.0000 1.0000
13.8600 4664.0000 1.0000
13.8800 4652.0000 1.0000
13.9000 4725.0000 1.0000
13.9200 4742.0000 1.0000
13.9400 4672.0000 1.0000
13.9600 4634.0000 1.0000
13.9800 4575.0000 1.0000
14.0000 4572.0000 1.0000
14.0200 4570.0000 1.0000
14.0400 4563.0000 1.0000
14.0600 4595.0000 1.0000
14.0800 4518.0000 1.0000
14.1000 4660.0000 1.0000
14.1200 4524.0000 1.0000
14.1400 4735.0000 1.0000
14.1600 4608.0000 1.0000
14.1800 4512.0000 1.0000
14.2000 4496.0000 1.0000
14.2200 4552.0000 1.0000
14.2400 4585.0000 1.0000
14.2600 4502.0000 1.0000
14.2800 4605.0000 1.0000
14.3000 4554.0000 1.0000
14.3200 4459.0000 1.0000
14.3400 4555.0000 1.0000
14.3600 4625.0000 1.0000
14.3800 4463.0000 1.0000
14.4000 4698.0000 1.0000
14.4200 4432.0000 1.0000
14.4400 4509.0000 1.0000
14.4600 4547.0000 1.0000
14.4800 4546.0000 1.0000
14.5000 4469.0000 1.0000
14.5200 4473.0000 1.0000
14.5400 4545.0000 1.0000
14.5600 4649.0000 1.0000
14.5800 4524.0000 1.0000
14.6000 4442.0000 1.0000
14.6200 4559.0000 1.0000
14.6400 4561.0000 1.0000
14.6600 4565.0000 1.0000
14.6800 4540.0000 1.0000
14.7000 4465.0000 1.0000
14.7200 4445.0000 1.0000
14.7400 4540.0000 1.0000
14.7600 4410.0000 1.0000
14.7800 4438.0000 1.0000
14.8000 4590.0000 1.0000
14.8200 4324.0000 1.0000
14.8400 4422.0000 1.0000
14.8600 4414.0000 1.0000
14.8800 4484.0000 1.0000
14.9000 4404.0000 1.0000
14.9200 4452.0000 1.0000
14.9400 4454.0000 1.0000
14.9600 4491.0000 1.0000
14.9800 4280.0000 1.0000
15.0000 4414.0000 1.0000
15.0200 4392.0000 1.0000
15.0400 4459.0000 1.0000
15.0600 4394.0000 1.0000
15.0800 4362.0000 1.0000
15.1000 4372.0000 1.0000
15.1200 4331.0000 1.0000
15.1400 4368.0000 1.0000
15.1600 4312.0000 1.0000
15.1800 4374.0000 1.0000
15.2000 4323.0000 1.0000
15.2200 4376.0000 1.0000
15.2400 4318.0000 1.0000
15.2600 4375.0000 1.0000
15.2800 4374.0000 1.0000
15.3000 4255.0000 1.0000
15.3200 4301.0000 1.0000
15.3400 4547.0000 1.0000
15.3600 4323.0000 1.0000
15.3800 4243.0000 1.0000
15.4000 4337.0000 1.0000
15.4200 4312.0000 1.0000
15.4400 4219.0000 1.0000
15.4600 4387.0000 1.0000
15.4800 4330.0000 1.0000
15.5000 4251.0000 1.0000
15.5200 4352.0000 1.0000
15.5400 4342.0000 1.0000
15.5600 4242.0000 1.0000
15.5800 4284.0000 1.0000
15.6000 4278.0000 1.0000
15.6200 4230.0000 1.0000
15.6400 4129.0000 1.0000
15.6600 4288.0000 1.0000
15.6800 4215.0000 1.0000
15.7000 4247.0000 1.0000
15.7200 4177.0000 1.0000
15.7400 4265.0000 1.0000
15.7600 4241.0000 1.0000
15.7800 4183.0000 1.0000
15.8000 4120.0000 1.0000
15.8200 4189.0000 1.0000
15.8400 4122.0000 1.0000
15.8600 4175.0000 1.0000
15.8800 4192.0000 1.0000
15.9000 4175.0000 1.0000
15.9200 4163.0000 1.0000
15.9400 4027.0000 1.0000
15.9600 4200.0000 1.0000
15.9800 4041.0000 1.0000
16.0000 4110.0000 1.0000
16.0200 4202.0000 1.0000
16.0400 4118.0000 1.0000
16.0600 4059.0000 1.0000
16.0800 4157.0000 1.0000
16.1000 4039.0000 1.0000
16.1200 4205.0000 1.0000
16.1400 4095.0000 1.0000
16.1600 4078.0000 1.0000
16.1800 4063.0000 1.0000
16.2000 4037.0000 1.0000
16.2200 4015.0000 1.0000
16.2400 3997.0000 1.0000
16.2600 4013.0000 1.0000
16.2800 4008.0000 1.0000
16.3000 4020.0000 1.0000
16.3200 4046.0000 1.0000
16.3400 3988.0000 1.0000
16.3600 4016.0000 1.0000
16.3800 3989.0000 1.0000
16.4000 4157.0000 1.0000
16.4200 4048.0000 1.0000
16.4400 4014.0000 1.0000
16.4600 4058.0000 1.0000
16.4800 4046.0000 1.0000
16.5000 4064.0000 1.0000
16.5200 4027.0000 1.0000
16.5400 4034.0000 1.0000
16.5600 3991.0000 1.0000
16.5800 4010.0000 1.0000
16.6000 3967.0000 1.0000
16.6200 3825.0000 1.0000
16.6400 3883.0000 1.0000
16.6600 3782.0000 1.0000
16.6800 3890.0000 1.0000
16.7000 3866.0000 1.0000
16.7200 3912.0000 1.0000
16.7400 3928.0000 1.0000
16.7600 3881.0000 1.0000
16.7800 3922.0000 1.0000
16.8000 3989.0000 1.0000
16.8200 3862.0000 1.0000
16.8400 3837.0000 1.0000
16.8600 3834.0000 1.0000
16.8800 3757.0000 1.0000
16.9000 3838.0000 1.0000
16.9200 3827.0000 1.0000
16.9400 3889.0000 1.0000
16.9600 3781.0000 1.0000
16.9800 3779.0000 1.0000
17.0000 3928.0000 1.0000
17.0200 3812.0000 1.0000
17.0400 3900.0000 1.0000
17.0600 3848.0000 1.0000
17.0800 3810.0000 1.0000
17.1000 3689.0000 1.0000
17.1200 3651.0000 1.0000
17.1400 3861.0000 1.0000
17.1600 3799.0000 1.0000
17.1800 3799.0000 1.0000
17.2000 3810.0000 1.0000
17.2200 3840.0000 1.0000
17.2400 3830.0000 1.0000
17.2600 3753.0000 1.0000
17.2800 3712.0000 1.0000
17.3000 3724.0000 1.0000
17.3200 3649.0000 1.0000
17.3400 3824.0000 1.0000
17.3600 3860.0000 1.0000
17.3800 3731.0000 1.0000
17.4000 3725.0000 1.0000
17.4200 3759.0000 1.0000
17.4400 3735.0000 1.0000
17.4600 3659.0000 1.0000
17.4800 3728.0000 1.0000
17.5000 3683.0000 1.0000
17.5200 3708.0000 1.0000
17.5400 3691.0000 1.0000
17.5600 3758.0000 1.0000
17.5800 3687.0000 1.0000
17.6000 3656.0000 1.0000
17.6200 3585.0000 1.0000
17.6400 3675.0000 1.0000
17.6600 3613.0000 1.0000
17.6800 3724.0000 1.0000
17.7000 3600.0000 1.0000
17.7200 3655.0000 1.0000
17.7400 3610.0000 1.0000
17.7600 3556.0000 1.0000
17.7800 3657.0000 1.0000
17.8000 3598.0000 1.0000
17.8200 3617.0000 1.0000
17.8400 3637.0000 1.0000
17.8600 3683.0000 1.0000
17.8800 3523.0000 1.0000
17.9000 3624.0000 1.0000
17.9200 3667.0000 1.0000
17.9400 3620.0000 1.0000
17.9600 3552.0000 1.0000
17.9800 3556.0000 1.0000
18.0000 3515.0000 1.0000
18.0200 3625.0000 1.0000
18.0400 3582.0000 1.0000
18.0600 3579.0000 1.0000
18.0800 3566.0000 1.0000
18.1000 3557.0000 1.0000
18.1200 3583.0000 1.0000
18.1400 3588.0000 1.0000
18.1600 3572.0000 1.0000
18.1800 3593.0000 1.0000
18.2000 3571.0000 1.0000
18.2200 3493.0000 1.0000
18.2400 3593.0000 1.0000
18.2600 3520.0000 1.0000
18.2800 3614.0000 1.0000
18.3000 3541.0000 1.0000
18.3200 3538.0000 1.0000
18.3400 3550.0000 1.0000
18.3600 3525.0000 1.0000
18.3800 3497.0000 1.0000
18.4000 3505.0000 1.0000
18.4200 3452.0000 1.0000
18.4400 3363.0000 1.0000
18.4600 3417.0000 1.0000
18.4800 3511.0000 1.0000
18.5000 3478.0000 1.0000
18.5200 3445.0000 1.0000
18.5400 3451.0000 1.0000
18.5600 3369.0000 1.0000
18.5800 3440.0000 1.0000
18.6000 3446.0000 1.0000
18.6200 3457.0000 1.0000
18.6400 3536.0000 1.0000
18.6600 3403.0000 1.0000
18.6800 3436.0000 1.0000
18.7000 3473.0000 1.0000
18.7200 3393.0000 1.0000
18.7400 3356.0000 1.0000
18.7600 3420.0000 1.0000
18.7800 3491.0000 1.0000
18.8000 3445.0000 1.0000
18.8200 3324.0000 1.0000
18.8400 3490.0000 1.0000
18.8600 3449.0000 1.0000
18.8800 3330.0000 1.0000
18.9000 3409.0000 1.0000
18.9200 3403.0000 1.0000
18.9400 3415.0000 1.0000
18.9600 3362.0000 1.0000
18.9800 3336.0000 1.0000
19.0000 3330.0000 1.0000
19.0200 3459.0000 1.0000
19.0400 3352.0000 1.0000
19.0600 3329.0000 1.0000
19.0800 3295.0000 1.0000
19.1000 3359.0000 1.0000
19.1200 3416.0000 1.0000
19.1400 3371.0000 1.0000
19.1600 3425.0000 1.0000
19.1800 3457.0000 1.0000
19.2000 3290.0000 1.0000
19.2200 3358.0000 1.0000
19.2400 3409.0000 1.0000
19.2600 3504.0000 1.0000
19.2800 3463.0000 1.0000
19.3000 3376.0000 1.0000
19.3200 3399.0000 1.0000
19.3400 3298.0000 1.0000
19.3600 3343.0000 1.0000
19.3800 3300.0000 1.0000
19.4000 3395.0000 1.0000
19.4200 3424.0000 1.0000
19.4400 3230.0000 1.0000
19.4600 3326.0000 1.0000
19.4800 3359.0000 1.0000
19.5000 3339.0000 1.0000
19.5200 3267.0000 1.0000
19.5400 3322.0000 1.0000
19.5600 3325.0000 1.0000
19.5800 3293.0000 1.0000
19.6000 3303.0000 1.0000
19.6200 3223.0000 1.0000
19.6400 3219.0000 1.0000
19.6600 3269.0000 1.0000
19.6800 3199.0000 1.0000
19.7000 3311.0000 1.0000
19.7200 3250.0000 1.0000
19.7400 3315.0000 1.0000
19.7600 3296.0000 1.0000
19.7800 3306.0000 1.0000
19.8000 3218.0000 1.0000
19.8200 3273.0000 1.0000
19.8400 3338.0000 1.0000
19.8600 3290.0000 1.0000
19.8800 3245.0000 1.0000
19.9000 3205.0000 1.0000
19.9200 3260.0000 1.0000
19.9400 3272.0000 1.0000
19.9600 3205.0000 1.0000
19.9800 3153.0000 1.0000
20.0000 3255.0000 1.0000
20.0200 3257.0000 1.0000
20.0400 3181.0000 1.0000
20.0600 3213.0000 1.0000
20.0800 3274.0000 1.0000
20.1000 3239.0000 1.0000
20.1200 3212.0000 1.0000
20.1400 3254.0000 1.0000
20.1600 3227.0000 1.0000
20.1800 3202.0000 1.0000
20.2000 3220.0000 1.0000
20.2200 3277.0000 1.0000
20.2400 3225.0000 1.0000
20.2600 3173.0000 1.0000
20.2800 3180.0000 1.0000
20.3000 3210.0000 1.0000
20.3200 3104.0000 1.0000
20.3400 3249.0000 1.0000
20.3600 3140.0000 1.0000
20.3800 3190.0000 1.0000
20.4000 3099.0000 1.0000
20.4200 3170.0000 1.0000
20.4400 3173.0000 1.0000
20.4600 3140.0000 1.0000
20.4800 3112.0000 1.0000
20.5000 3131.0000 1.0000
20.5200 3208.0000 1.0000
20.5400 3170.0000 1.0000
20.5600 3175.0000 1.0000
20.5800 3115.0000 1.0000
20.6000 3171.0000 1.0000
20.6200 3217.0000 1.0000
20.6400 3027.0000 1.0000
20.6600 3137.0000 1.0000
20.6800 3206.0000 1.0000
20.7000 3104.0000 1.0000
20.7200 3188.0000 1.0000
20.7400 3114.0000 1.0000
20.7600 3167.0000 1.0000
20.7800 3084.0000 1.0000
20.8000 3085.0000 1.0000
20.8200 3130.0000 1.0000
20.8400 3114.0000 1.0000
20.8600 3244.0000 1.0000
20.8800 3166.0000 1.0000
20.9000 3070.0000 1.0000
20.9200 3186.0000 1.0000
20.9400 3182.0000 1.0000
20.9600 3121.0000 1.0000
20.9800 3099.0000 1.0000
21.0000 3073.0000 1.0000
21.0200 3155.0000 1.0000
21.0400 3168.0000 1.0000
21.0600 3086.0000 1.0000
21.0800 3064.0000 1.0000
21.1000 3138.0000 1.0000
21.1200 3135.0000 1.0000
21.1400 3064.0000 1.0000
21.1600 3140.0000 1.0000
21.1800 3133.0000 1.0000
21.2000 3143.0000 1.0000
21.2200 3103.0000 1.0000
21.2400 3110.0000 1.0000
21.2600 2965.0000 1.0000
21.2800 3052.0000 1.0000
21.3000 3134.0000 1.0000
21.3200 3109.0000 1.0000
21.3400 3119.0000 1.0000
21.3600 3113.0000 1.0000
21.3800 3103.0000 1.0000
21.4000 3054.0000 1.0000
21.4200 3131.0000 1.0000
21.4400 3022.0000 1.0000
21.4600 3065.0000 1.0000
21.4800 3044.0000 1.0000
21.5000 3019.0000 1.0000
21.5200 3083.0000 1.0000
21.5400 3002.0000 1.0000
21.5600 3057.0000 1.0000
21.5800 3077.0000 1.0000
21.6000 3065.0000 1.0000
21.6200 3040.0000 1.0000
21.6400 2950.0000 1.0000
21.6600 3006.0000 1.0000
21.6800 3085.0000 1.0000
21.7000 3070.0000 1.0000
21.7200 3017.0000 1.0000
21.7400 2990.0000 1.0000
21.7600 2970.0000 1.0000
21.7800 3035.0000 1.0000
21.8000 3057.0000 1.0000
21.8200 3091.0000 1.0000
21.8400 3097.0000 1.0000
21.8600 3076.0000 1.0000
21.8800 3027.0000 1.0000
21.9000 2946.0000 1.0000
21.9200 3002.0000 1.0000
21.9400 3074.0000 1.0000
21.9600 3083.0000 1.0000
21.9800 2996.0000 1.0000
22.0000 2987.0000 1.0000
22.0200 2969.0000 1.0000
22.0400 3079.0000 1.0000
22.0600 2994.0000 1.0000
22.0800 3056.0000 1.0000
22.1000 2996.0000 1.0000
22.1200 2952.0000 1.0000
22.1400 3058.0000 1.0000
22.1600 3017.0000 1.0000
22.1800 3036.0000 1.0000
22.2000 3028.0000 1.0000
22.2200 2985.0000 1.0000
22.2400 3021.0000 1.0000
22.2600 3053.0000 1.0000
22.2800 3027.0000 1.0000
22.3000 3150.0000 1.0000
22.3200 3027.0000 1.0000
22.3400 3067.0000 1.0000
22.3600 3140.0000 1.0000
22.3800 3078.0000 1.0000
22.4000 3067.0000 1.0000
22.4200 3141.0000 1.0000
22.4400 3131.0000 1.0000
22.4600 3048.0000 1.0000
22.4800 3020.0000 1.0000
22.5000 3064.0000 1.0000
22.5200 3064.0000 1.0000
22.5400 3188.0000 1.0000
22.5600 3123.0000 1.0000
22.5800 3084.0000 1.0000
22.6000 3063.0000 1.0000
22.6200 3182.0000 1.0000
22.6400 3143.0000 1.0000
22.6600 3188.0000 1.0000
22.6800 3142.0000 1.0000
22.7000 3060.0000 1.0000
22.7200 3106.0000 1.0000
22.7400 3137.0000 1.0000
22.7600 3127.0000 1.0000
22.7800 3096.0000 1.0000
22.8000 3042.0000 1.0000
22.8200 2993.0000 1.0000
22.8400 3093.0000 1.0000
22.8600 3061.0000 1.0000
22.8800 3073.0000 1.0000
22.9000 3032.0000 1.0000
22.9200 3177.0000 1.0000
22.9400 3138.0000 1.0000
22.9600 3133.0000 1.0000
22.9800 3224.0000 1.0000
23.0000 3349.0000 1.0000
23.0200 3340.0000 1.0000
23.0400 3453.0000 1.0000
23.0600 3435.0000 1.0000
23.0800 3435.0000 1.0000
23.1000 3467.0000 1.0000
23.1200 3457.0000 1.0000
23.1400 3256.0000 1.0000
23.1600 3229.0000 1.0000
23.1800 3177.0000 1.0000
23.2000 3133.0000 1.0000
23.2200 3052.0000 1.0000
23.2400 3001.0000 1.0000
23.2600 3090.0000 1.0000
23.2800 3051.0000 1.0000
23.3000 3136.0000 1.0000
23.3200 3148.0000 1.0000
23.3400 3029.0000 1.0000
23.3600 3016.0000 1.0000
23.3800 3116.0000 1.0000
23.4000 2966.0000 1.0000
23.4200 2944.0000 1.0000
23.4400 3104.0000 1.0000
23.4600 3158.0000 1.0000
23.4800 3182.0000 1.0000
23.5000 3039.0000 1.0000
23.5200 3091.0000 1.0000
23.5400 3004.0000 1.0000
23.5600 3153.0000 1.0000
23.5800 3191.0000 1.0000
23.6000 3174.0000 1.0000
23.6200 3074.0000 1.0000
23.6400 3078.0000 1.0000
23.6600 3235.0000 1.0000
23.6800 3292.0000 1.0000
23.7000 3294.0000 1.0000
23.7200 3294.0000 1.0000
23.7400 3248.0000 1.0000
23.7600 3286.0000 1.0000
23.7800 3295.0000 1.0000
23.8000 3278.0000 1.0000
23.8200 3355.0000 1.0000
23.8400 3321.0000 1.0000
23.8600 3437.0000 1.0000
23.8800 3400.0000 1.0000
23.9000 3461.0000 1.0000
23.9200 3569.0000 1.0000
23.9400 3576.0000 1.0000
23.9600 3590.0000 1.0000
23.9800 3649.0000 1.0000
24.0000 3744.0000 1.0000
24.0200 3871.0000 1.0000
24.0400 3777.0000 1.0000
24.0600 3829.0000 1.0000
24.0800 3953.0000 1.0000
24.1000 3942.0000 1.0000
24.1200 3921.0000 1.0000
24.1400 4112.0000 1.0000
24.1600 4134.0000 1.0000
24.1800 4078.0000 1.0000
24.2000 4152.0000 1.0000
24.2200 4273.0000 1.0000
24.2400 4315.0000 1.0000
24.2600 4478.0000 1.0000
24.2800 4561.0000 1.0000
24.3000 4634.0000 1.0000
24.3200 4830.0000 1.0000
24.3400 4913.0000 1.0000
24.3600 5127.0000 1.0000
24.3800 5347.0000 1.0000
24.4000 5426.0000 1.0000
24.4200 5627.0000 1.0000
24.4400 5776.0000 1.0000
24.4600 6179.0000 1.0000
24.4800 6408.0000 1.0000
24.5000 6715.0000 1.0000
24.5200 7045.0000 1.0000
24.5400 7398.0000 1.0000
24.5600 7970.0000 1.0000
24.5800 8401.0000 1.0000
24.6000 8819.0000 1.0000
24.6200 9327.0000 1.0000
24.6400 10003.0000 1.0000
24.6600 10535.0000 1.0000
24.6800 11387.0000 1.0000
24.7000 12154.0000 1.0000
24.7200 12769.0000 1.0000
24.7400 13745.0000 1.0000
24.7600 14479.0000 1.0000
24.7800 15539.0000 1.0000
24.8000 16355.0000 1.0000
24.8200 17346.0000 1.0000
24.8400 18255.0000 1.0000
24.8600 19305.0000 1.0000
24.8800 19714.0000 1.0000
24.9000 20135.0000 1.0000
24.9200 20698.0000 1.0000
24.9400 20778.0000 1.0000
24.9600 21160.0000 1.0000
24.9800 21105.0000 1.0000
25.0000 20985.0000 1.0000
25.0200 20478.0000 1.0000
25.0400 20155.0000 1.0000
25.0600 19491.0000 1.0000
25.0800 19049.0000 1.0000
25.1000 18296.0000 1.0000
25.1200 17746.0000 1.0000
25.1400 17207.0000 1.0000
25.1600 16362.0000 1.0000
25.1800 15972.0000 1.0000
25.2000 15302.0000 1.0000
25.2200 14830.0000 1.0000
25.2400 13953.0000 1.0000
25.2600 13702.0000 1.0000
25.2800 13262.0000 1.0000
25.3000 12562.0000 1.0000
25.3200 12318.0000 1.0000
25.3400 11981.0000 1.0000
25.3600 11738.0000 1.0000
25.3800 11392.0000 1.0000
25.4000 11034.0000 1.0000
25.4200 10726.0000 1.0000
25.4400 10399.0000 1.0000
25.4600 9986.0000 1.0000
25.4800 9873.0000 1.0000
25.5000 9729.0000 1.0000
25.5200 9509.0000 1.0000
25.5400 9172.0000 1.0000
25.5600 9011.0000 1.0000
25.5800 8998.0000 1.0000
25.6000 8689.0000 1.0000
25.6200 8541.0000 1.0000
25.6400 8503.0000 1.0000
25.6600 8394.0000 1.0000
25.6800 7989.0000 1.0000
25.7000 8055.0000 1.0000
25.7200 7979.0000 1.0000
25.7400 8053.0000 1.0000
25.7600 7708.0000 1.0000
25.7800 7718.0000 1.0000
25.8000 7755.0000 1.0000
25.8200 7655.0000 1.0000
25.8400 7519.0000 1.0000
25.8600 7532.0000 1.0000
25.8800 7462.0000 1.0000
25.9000 7556.0000 1.0000
25.9200 7533.0000 1.0000
25.9400 7402.0000 1.0000
25.9600 7309.0000 1.0000
25.9800 7104.0000 1.0000
26.0000 7205.0000 1.0000
26.0200 7097.0000 1.0000
26.0400 7171.0000 1.0000
26.0600 7326.0000 1.0000
26.0800 7288.0000 1.0000
26.1000 7305.0000 1.0000
26.1200 7289.0000 1.0000
26.1400 7293.0000 1.0000
26.1600 7469.0000 1.0000
26.1800 7648.0000 1.0000
26.2000 7739.0000 1.0000
26.2200 7940.0000 1.0000
26.2400 8049.0000 1.0000
26.2600 8188.0000 1.0000
26.2800 8570.0000 1.0000
26.3000 8652.0000 1.0000
26.3200 9334.0000 1.0000
26.3400 9694.0000 1.0000
26.3600 10131.0000 1.0000
26.3800 11022.0000 1.0000
26.4000 11751.0000 1.0000
26.4200 12881.0000 1.0000
26.4400 13778.0000 1.0000
26.4600 15180.0000 1.0000
26.4800 16608.0000 1.0000
26.5000 18374.0000 1.0000
26.5200 20500.0000 1.0000
26.5400 22711.0000 1.0000
26.5600 24709.0000 1.0000
26.5800 26983.0000 1.0000
26.6000 28818.0000 1.0000
26.6200 30451.0000 1.0000
26.6400 31050.0000 1.0000
26.6600 30609.0000 1.0000
26.6800 29892.0000 1.0000
26.7000 28486.0000 1.0000
26.7200 26455.0000 1.0000
26.7400 24697.0000 1.0000
26.7600 22933.0000 1.0000
26.7800 21203.0000 1.0000
26.8000 19556.0000 1.0000
26.8200 18283.0000 1.0000
26.8400 17309.0000 1.0000
26.8600 16426.0000 1.0000
26.8800 15237.0000 1.0000
26.9000 14591.0000 1.0000
26.9200 14224.0000 1.0000
26.9400 13541.0000 1.0000
26.9600 13360.0000 1.0000
26.9800 12698.0000 1.0000
27.0000 12453.0000 1.0000
27.0200 11999.0000 1.0000
27.0400 11712.0000 1.0000
27.0600 11529.0000 1.0000
27.0800 11300.0000 1.0000
27.1000 11060.0000 1.0000
27.1200 10889.0000 1.0000
27.1400 10622.0000 1.0000
27.1600 10496.0000 1.0000
27.1800 10384.0000 1.0000
27.2000 10209.0000 1.0000
27.2200 10175.0000 1.0000
27.2400 9951.0000 1.0000
27.2600 9880.0000 1.0000
27.2800 9946.0000 1.0000
27.3000 9956.0000 1.0000
27.3200 9823.0000 1.0000
27.3400 9904.0000 1.0000
27.3600 9824.0000 1.0000
27.3800 9652.0000 1.0000
27.4000 9639.0000 1.0000
27.4200 9697.0000 1.0000
27.4400 9726.0000 1.0000
27.4600 9729.0000 1.0000
27.4800 9804.0000 1.0000
27.5000 9995.0000 1.0000
27.5200 9862.0000 1.0000
27.5400 9971.0000 1.0000
27.5600 9931.0000 1.0000
27.5800 10091.0000 1.0000
27.6000 10183.0000 1.0000
27.6200 10268.0000 1.0000
27.6400 10533.0000 1.0000
27.6600 10748.0000 1.0000
27.6800 11053.0000 1.0000
27.7000 10980.0000 1.0000
27.7200 11243.0000 1.0000
27.7400 11475.0000 1.0000
27.7600 11746.0000 1.0000
27.7800 12208.0000 1.0000
27.8000 12305.0000 1.0000
27.8200 12453.0000 1.0000
27.8400 12948.0000 1.0000
27.8600 13432.0000 1.0000
27.8800 13821.0000 1.0000
27.9000 14567.0000 1.0000
27.9200 15144.0000 1.0000
27.9400 15651.0000 1.0000
27.9600 16485.0000 1.0000
27.9800 17380.0000 1.0000
28.0000 18341.0000 1.0000
28.0200 19393.0000 1.0000
28.0400 19987.0000 1.0000
28.0600 21383.0000 1.0000
28.0800 22765.0000 1.0000
28.1000 23788.0000 1.0000
28.1200 25377.0000 1.0000
28.1400 26520.0000 1.0000
28.1600 27781.0000 1.0000
28.1800 29194.0000 1.0000
28.2000 30450.0000 1.0000
28.2200 31574.0000 1.0000
28.2400 32613.0000 1.0000
28.2600 33512.0000 1.0000
28.2800 33919.0000 1.0000
28.3000 34535.0000 1.0000
28.3200 34582.0000 1.0000
28.3400 34255.0000 1.0000
28.3600 34185.0000 1.0000
28.3800 33351.0000 1.0000
28.4000 32876.0000 1.0000
28.4200 31702.0000 1.0000
28.4400 30745.0000 1.0000
28.4600 29961.0000 1.0000
28.4800 28608.0000 1.0000
28.5000 27807.0000 1.0000
28.5200 26619.0000 1.0000
28.5400 25234.0000 1.0000
28.5600 24220.0000 1.0000
28.5800 23186.0000 1.0000
28.6000 21985.0000 1.0000
28.6200 20911.0000 1.0000
28.6400 19873.0000 1.0000
28.6600 18808.0000 1.0000
28.6800 18200.0000 1.0000
28.7000 17191.0000 1.0000
28.7200 16510.0000 1.0000
28.7400 15895.0000 1.0000
28.7600 14928.0000 1.0000
28.7800 14576.0000 1.0000
28.8000 13899.0000 1.0000
28.8200 13476.0000 1.0000
28.8400 12921.0000 1.0000
28.8600 12548.0000 1.0000
28.8800 12156.0000 1.0000
28.9000 11720.0000 1.0000
28.9200 11387.0000 1.0000
28.9400 10782.0000 1.0000
28.9600 10673.0000 1.0000
28.9800 10319.0000 1.0000
29.0000 9888.0000 1.0000
29.0200 9667.0000 1.0000
29.0400 9422.0000 1.0000
29.0600 9238.0000 1.0000
29.0800 8837.0000 1.0000
29.1000 8631.0000 1.0000
29.1200 8484.0000 1.0000
29.1400 8228.0000 1.0000
29.1600 7927.0000 1.0000
29.1800 7893.0000 1.0000
29.2000 7801.0000 1.0000
29.2200 7499.0000 1.0000
29.2400 7316.0000 1.0000
29.2600 7164.0000 1.0000
29.2800 7048.0000 1.0000
29.3000 6954.0000 1.0000
29.3200 6728.0000 1.0000
29.3400 6636.0000 1.0000
29.3600 6362.0000 1.0000
29.3800 6450.0000 1.0000
29.4000 6209.0000 1.0000
29.4200 6160.0000 1.0000
29.4400 6151.0000 1.0000
29.4600 6021.0000 1.0000
29.4800 5908.0000 1.0000
29.5000 5578.0000 1.0000
29.5200 5623.0000 1.0000
29.5400 5487.0000 1.0000
29.5600 5717.0000 1.0000
29.5800 5401.0000 1.0000
29.6000 5324.0000 1.0000
29.6200 5232.0000 1.0000
29.6400 5002.0000 1.0000
29.6600 5054.0000 1.0000
29.6800 5144.0000 1.0000
29.7000 4878.0000 1.0000
29.7200 4936.0000 1.0000
29.7400 4680.0000 1.0000
29.7600 4948.0000 1.0000
29.7800 4809.0000 1.0000
29.8000 4864.0000 1.0000
29.8200 4747.0000 1.0000
29.8400 4821.0000 1.0000
29.8600 4608.0000 1.0000
29.8800 4495.0000 1.0000
29.9000 4432.0000 1.0000
29.9200 4468.0000 1.0000
29.9400 4406.0000 1.0000
29.9600 4429.0000 1.0000
29.9800 4433.0000 1.0000
30.0000 4151.0000 1.0000
30.0200 4354.0000 1.0000
30.0400 4153.0000 1.0000
30.0600 4143.0000 1.0000
30.0800 4146.0000 1.0000
30.1000 4047.0000 1.0000
30.1200 4036.0000 1.0000
30.1400 4074.0000 1.0000
30.1600 4046.0000 1.0000
30.1800 3900.0000 1.0000
30.2000 4014.0000 1.0000
30.2200 3978.0000 1.0000
30.2400 3962.0000 1.0000
30.2600 3906.0000 1.0000
30.2800 3850.0000 1.0000
30.3000 3733.0000 1.0000
30.3200 3773.0000 1.0000
30.3400 3715.0000 1.0000
30.3600 3617.0000 1.0000
30.3800 3694.0000 1.0000
30.4000 3768.0000 1.0000
30.4200 3571.0000 1.0000
30.4400 3525.0000 1.0000
30.4600 3597.0000 1.0000
30.4800 3547.0000 1.0000
30.5000 3492.0000 1.0000
30.5200 3575.0000 1.0000
30.5400 3441.0000 1.0000
30.5600 3411.0000 1.0000
30.5800 3447.0000 1.0000
30.6000 3360.0000 1.0000
30.6200 3439.0000 1.0000
30.6400 3391.0000 1.0000
30.6600 3323.0000 1.0000
30.6800 3340.0000 1.0000
30.7000 3328.0000 1.0000
30.7200 3311.0000 1.0000
30.7400 3213.0000 1.0000
30.7600 3251.0000 1.0000
30.7800 3278.0000 1.0000
30.8000 3122.0000 1.0000
30.8200 3235.0000 1.0000
30.8400 3086.0000 1.0000
30.8600 3146.0000 1.0000
30.8800 3143.0000 1.0000
30.9000 3061.0000 1.0000
30.9200 3042.0000 1.0000
30.9400 3126.0000 1.0000
30.9600 3060.0000 1.0000
30.9800 2993.0000 1.0000
31.0000 2981.0000 1.0000
31.0200 3055.0000 1.0000
31.0400 3033.0000 1.0000
31.0600 2991.0000 1.0000
31.0800 2868.0000 1.0000
31.1000 2960.0000 1.0000
31.1200 2951.0000 1.0000
31.1400 2980.0000 1.0000
31.1600 2880.0000 1.0000
31.1800 2871.0000 1.0000
31.2000 2897.0000 1.0000
31.2200 2912.0000 1.0000
31.2400 2915.0000 1.0000
31.2600 2842.0000 1.0000
31.2800 2834.0000 1.0000
31.3000 2770.0000 1.0000
31.3200 2897.0000 1.0000
31.3400 2986.0000 1.0000
31.3600 2904.0000 1.0000
31.3800 2892.0000 1.0000
31.4000 2885.0000 1.0000
31.4200 2821.0000 1.0000
31.4400 2839.0000 1.0000
31.4600 2770.0000 1.0000
31.4800 2761.0000 1.0000
31.5000 2873.0000 1.0000
31.5200 2749.0000 1.0000
31.5400 2773.0000 1.0000
31.5600 2763.0000 1.0000
31.5800 2759.0000 1.0000
31.6000 2740.0000 1.0000
31.6200 2710.0000 1.0000
31.6400 2736.0000 1.0000
31.6600 2752.0000 1.0000
31.6800 2742.0000 1.0000
31.7000 2555.0000 1.0000
31.7200 2668.0000 1.0000
31.7400 2661.0000 1.0000
31.7600 2645.0000 1.0000
31.7800 2633.0000 1.0000
31.8000 2676.0000 1.0000
31.8200 2650.0000 1.0000
31.8400 2553.0000 1.0000
31.8600 2623.0000 1.0000
31.8800 2644.0000 1.0000
31.9000 2595.0000 1.0000
31.9200 2590.0000 1.0000
31.9400 2607.0000 1.0000
31.9600 2566.0000 1.0000
31.9800 2516.0000 1.0000
32.0000 2524.0000 1.0000
32.0200 2544.0000 1.0000
32.0400 2618.0000 1.0000
32.0600 2489.0000 1.0000
32.0800 2470.0000 1.0000
32.1000 2592.0000 1.0000
32.1200 2590.0000 1.0000
32.1400 2530.0000 1.0000
32.1600 2497.0000 1.0000
32.1800 2486.0000 1.0000
32.2000 2589.0000 1.0000
32.2200 2548.0000 1.0000
32.2400 2497.0000 1.0000
32.2600 2490.0000 1.0000
32.2800 2521.0000 1.0000
32.3000 2535.0000 1.0000
32.3200 2454.0000 1.0000
32.3400 2450.0000 1.0000
32.3600 2585.0000 1.0000
32.3800 2525.0000 1.0000
32.4000 2444.0000 1.0000
32.4200 2496.0000 1.0000
32.4400 2495.0000 1.0000
32.4600 2506.0000 1.0000
32.4800 2544.0000 1.0000
32.5000 2494.0000 1.0000
32.5200 2379.0000 1.0000
32.5400 2478.0000 1.0000
32.5600 2403.0000 1.0000
32.5800 2517.0000 1.0000
32.6000 2493.0000 1.0000
32.6200 2450.0000 1.0000
32.6400 2382.0000 1.0000
32.6600 2473.0000 1.0000
32.6800 2460.0000 1.0000
32.7000 2338.0000 1.0000
32.7200 2408.0000 1.0000
32.7400 2389.0000 1.0000
32.7600 2327.0000 1.0000
32.7800 2402.0000 1.0000
32.8000 2442.0000 1.0000
32.8200 2434.0000 1.0000
32.8400 2404.0000 1.0000
32.8600 2337.0000 1.0000
32.8800 2411.0000 1.0000
32.9000 2429.0000 1.0000
32.9200 2435.0000 1.0000
32.9400 2469.0000 1.0000
32.9600 2510.0000 1.0000
32.9800 2335.0000 1.0000
33.0000 2373.0000 1.0000
33.0200 2428.0000 1.0000
33.0400 2349.0000 1.0000
33.0600 2386.0000 1.0000
33.0800 2426.0000 1.0000
33.1000 2372.0000 1.0000
33.1200 2368.0000 1.0000
33.1400 2410.0000 1.0000
33.1600 2397.0000 1.0000
33.1800 2353.0000 1.0000
33.2000 2309.0000 1.0000
33.2200 2350.0000 1.0000
33.2400 2379.0000 1.0000
33.2600 2387.0000 1.0000
33.2800 2324.0000 1.0000
33.3000 2381.0000 1.0000
33.3200 2330.0000 1.0000
33.3400 2309.0000 1.0000
33.3600 2369.0000 1.0000
33.3800 2331.0000 1.0000
33.4000 2344.0000 1.0000
33.4200 2331.0000 1.0000
33.4400 2415.0000 1.0000
33.4600 2359.0000 1.0000
33.4800 2341.0000 1.0000
33.5000 2294.0000 1.0000
33.5200 2322.0000 1.0000
33.5400 2330.0000 1.0000
33.5600 2379.0000 1.0000
33.5800 2333.0000 1.0000
33.6000 2290.0000 1.0000
33.6200 2344.0000 1.0000
33.6400 2373.0000 1.0000
33.6600 2233.0000 1.0000
33.6800 2297.0000 1.0000
33.7000 2267.0000 1.0000
33.7200 2219.0000 1.0000
33.7400 2319.0000 1.0000
33.7600 2307.0000 1.0000
33.7800 2225.0000 1.0000
33.8000 2200.0000 1.0000
33.8200 2243.0000 1.0000
33.8400 2170.0000 1.0000
33.8600 2249.0000 1.0000
33.8800 2238.0000 1.0000
33.9000 2227.0000 1.0000
33.9200 2235.0000 1.0000
33.9400 2206.0000 1.0000
33.9600 2261.0000 1.0000
33.9800 2296.0000 1.0000
34.0000 2274.0000 1.0000
34.0200 2367.0000 1.0000
34.0400 2242.0000 1.0000
34.0600 2182.0000 1.0000
34.0800 2318.0000 1.0000
34.1000 2300.0000 1.0000
34.1200 2245.0000 1.0000
34.1400 2230.0000 1.0000
34.1600 2287.0000 1.0000
34.1800 2211.0000 1.0000
34.2000 2218.0000 1.0000
34.2200 2286.0000 1.0000
34.2400 2227.0000 1.0000
34.2600 2236.0000 1.0000
34.2800 2355.0000 1.0000
34.3000 2361.0000 1.0000
34.3200 2340.0000 1.0000
34.3400 2230.0000 1.0000
34.3600 2403.0000 1.0000
34.3800 2272.0000 1.0000
34.4000 2180.0000 1.0000
34.4200 2190.0000 1.0000
34.4400 2228.0000 1.0000
34.4600 2269.0000 1.0000
34.4800 2321.0000 1.0000
34.5000 2230.0000 1.0000
34.5200 2261.0000 1.0000
34.5400 2244.0000 1.0000
34.5600 2188.0000 1.0000
34.5800 2221.0000 1.0000
34.6000 2228.0000 1.0000
34.6200 2323.0000 1.0000
34.6400 2263.0000 1.0000
34.6600 2250.0000 1.0000
34.6800 2269.0000 1.0000
34.7000 2278.0000 1.0000
34.7200 2290.0000 1.0000
34.7400 2256.0000 1.0000
34.7600 2290.0000 1.0000
34.7800 2356.0000 1.0000
34.8000 2270.0000 1.0000
34.8200 2258.0000 1.0000
34.8400 2353.0000 1.0000
34.8600 2351.0000 1.0000
34.8800 2256.0000 1.0000
34.9000 2352.0000 1.0000
34.9200 2377.0000 1.0000
34.9400 2334.0000 1.0000
34.9600 2268.0000 1.0000
34.9800 2340.0000 1.0000
35.0000 2268.0000 1.0000
35.0200 2220.0000 1.0000
35.0400 2364.0000 1.0000
35.0600 2360.0000 1.0000
35.0800 2300.0000 1.0000
35.1000 2339.0000 1.0000
35.1200 2275.0000 1.0000
35.1400 2372.0000 1.0000
35.1600 2309.0000 1.0000
35.1800 2278.0000 1.0000
35.2000 2361.0000 1.0000
35.2200 2310.0000 1.0000
35.2400 2382.0000 1.0000
35.2600 2356.0000 1.0000
35.2800 2389.0000 1.0000
35.3000 2378.0000 1.0000
35.3200 2411.0000 1.0000
35.3400 2432.0000 1.0000
35.3600 2357.0000 1.0000
35.3800 2450.0000 1.0000
35.4000 2500.0000 1.0000
35.4200 2398.0000 1.0000
35.4400 2342.0000 1.0000
35.4600 2455.0000 1.0000
35.4800 2472.0000 1.0000
35.5000 2425.0000 1.0000
35.5200 2404.0000 1.0000
35.5400 2394.0000 1.0000
35.5600 2469.0000 1.0000
35.5800 2489.0000 1.0000
35.6000 2510.0000 1.0000
35.6200 2538.0000 1.0000
35.6400 2667.0000 1.0000
35.6600 2674.0000 1.0000
35.6800 2625.0000 1.0000
35.7000 2614.0000 1.0000
35.7200 2642.0000 1.0000
35.7400 2592.0000 1.0000
35.7600 2737.0000 1.0000
35.7800 2645.0000 1.0000
35.8000 2655.0000 1.0000
35.8200 2747.0000 1.0000
35.8400 2856.0000 1.0000
35.8600 2775.0000 1.0000
35.8800 2860.0000 1.0000
35.9000 2810.0000 1.0000
35.9200 2778.0000 1.0000
35.9400 2871.0000 1.0000
35.9600 2915.0000 1.0000
35.9800 2936.0000 1.0000
36.0000 3007.0000 1.0000
36.0200 2980.0000 1.0000
36.0400 3039.0000 1.0000
36.0600 3092.0000 1.0000
36.0800 3109.0000 1.0000
36.1000 3126.0000 1.0000
36.1200 3180.0000 1.0000
36.1400 3383.0000 1.0000
36.1600 3363.0000 1.0000
36.1800 3309.0000 1.0000
36.2000 3392.0000 1.0000
36.2200 3496.0000 1.0000
36.2400 3529.0000 1.0000
36.2600 3637.0000 1.0000
36.2800 3633.0000 1.0000
36.3000 3821.0000 1.0000
36.3200 3884.0000 1.0000
36.3400 3989.0000 1.0000
36.3600 4013.0000 1.0000
36.3800 4016.0000 1.0000
36.4000 4117.0000 1.0000
36.4200 4281.0000 1.0000
36.4400 4411.0000 1.0000
36.4600 4453.0000 1.0000
36.4800 4622.0000 1.0000
36.5000 4777.0000 1.0000
36.5200 4837.0000 1.0000
36.5400 5039.0000 1.0000
36.5600 5046.0000 1.0000
36.5800 5272.0000 1.0000
36.6000 5366.0000 1.0000
36.6200 5462.0000 1.0000
36.6400 5579.0000 1.0000
36.6600 5698.0000 1.0000
36.6800 5808.0000 1.0000
36.7000 5913.0000 1.0000
36.7200 6007.0000 1.0000
36.7400 6003.0000 1.0000
36.7600 6137.0000 1.0000
36.7800 6176.0000 1.0000
36.8000 6118.0000 1.0000
36.8200 6245.0000 1.0000
36.8400 6097.0000 1.0000
36.8600 6105.0000 1.0000
36.8800 6142.0000 1.0000
36.9000 5993.0000 1.0000
36.9200 6016.0000 1.0000
36.9400 5831.0000 1.0000
36.9600 5876.0000 1.0000
36.9800 5714.0000 1.0000
37.0000 5554.0000 1.0000
37.0200 5626.0000 1.0000
37.0400 5389.0000 1.0000
37.0600 5295.0000 1.0000
37.0800 5349.0000 1.0000
37.1000 5116.0000 1.0000
37.1200 5137.0000 1.0000
37.1400 4923.0000 1.0000
37.1600 4751.0000 1.0000
37.1800 4611.0000 1.0000
37.2000 4629.0000 1.0000
37.2200 4516.0000 1.0000
37.2400 4414.0000 1.0000
37.2600 4366.0000 1.0000
37.2800 4337.0000 1.0000
37.3000 4169.0000 1.0000
37.3200 4164.0000 1.0000
37.3400 3998.0000 1.0000
37.3600 4100.0000 1.0000
37.3800 3981.0000 1.0000
37.4000 3948.0000 1.0000
37.4200 3725.0000 1.0000
37.4400 3613.0000 1.0000
37.4600 3690.0000 1.0000
37.4800 3605.0000 1.0000
37.5000 3620.0000 1.0000
37.5200 3516.0000 1.0000
37.5400 3388.0000 1.0000
37.5600 3496.0000 1.0000
37.5800 3315.0000 1.0000
37.6000 3358.0000 1.0000
37.6200 3289.0000 1.0000
37.6400 3291.0000 1.0000
37.6600 3233.0000 1.0000
37.6800 3179.0000 1.0000
37.7000 3092.0000 1.0000
37.7200 3103.0000 1.0000
37.7400 3110.0000 1.0000
37.7600 2995.0000 1.0000
37.7800 3069.0000 1.0000
37.8000 3006.0000 1.0000
37.8200 2980.0000 1.0000
37.8400 2951.0000 1.0000
37.8600 2830.0000 1.0000
37.8800 2899.0000 1.0000
37.9000 2956.0000 1.0000
37.9200 2840.0000 1.0000
37.9400 2810.0000 1.0000
37.9600 2776.0000 1.0000
37.9800 2811.0000 1.0000
38.0000 2738.0000 1.0000
38.0200 2725.0000 1.0000
38.0400 2808.0000 1.0000
38.0600 2702.0000 1.0000
38.0800 2739.0000 1.0000
38.1000 2729.0000 1.0000
38.1200 2527.0000 1.0000
38.1400 2731.0000 1.0000
38.1600 2622.0000 1.0000
38.1800 2504.0000 1.0000
38.2000 2618.0000 1.0000
38.2200 2543.0000 1.0000
38.2400 2535.0000 1.0000
38.2600 2508.0000 1.0000
38.2800 2560.0000 1.0000
38.3000 2502.0000 1.0000
38.3200 2517.0000 1.0000
38.3400 2508.0000 1.0000
38.3600 2475.0000 1.0000
38.3800 2495.0000 1.0000
38.4000 2492.0000 1.0000
38.4200 2383.0000 1.0000
38.4400 2510.0000 1.0000
38.4600 2546.0000 1.0000
38.4800 2455.0000 1.0000
38.5000 2369.0000 1.0000
38.5200 2340.0000 1.0000
38.5400 2440.0000 1.0000
38.5600 2413.0000 1.0000
38.5800 2351.0000 1.0000
38.6000 2352.0000 1.0000
38.6200 2360.0000 1.0000
38.6400 2379.0000 1.0000
38.6600 2293.0000 1.0000
38.6800 2304.0000 1.0000
38.7000 2365.0000 1.0000
38.7200 2347.0000 1.0000
38.7400 2406.0000 1.0000
38.7600 2393.0000 1.0000
38.7800 2350.0000 1.0000
38.8000 2307.0000 1.0000
38.8200 2365.0000 1.0000
38.8400 2335.0000 1.0000
38.8600 2305.0000 1.0000
38.8800 2243.0000 1.0000
38.9000 2211.0000 1.0000
38.9200 2249.0000 1.0000
38.9400 2252.0000 1.0000
38.9600 2290.0000 1.0000
38.9800 2258.0000 1.0000
39.0000 2292.0000 1.0000
39.0200 2290.0000 1.0000
39.0400 2226.0000 1.0000
39.0600 2260.0000 1.0000
39.0800 2311.0000 1.0000
39.1000 2238.0000 1.0000
39.1200 2363.0000 1.0000
39.1400 2254.0000 1.0000
39.1600 2193.0000 1.0000
39.1800 2178.0000 1.0000
39.2000 2287.0000 1.0000
39.2200 2209.0000 1.0000
39.2400 2316.0000 1.0000
39.2600 2330.0000 1.0000
39.2800 2238.0000 1.0000
39.3000 2315.0000 1.0000
39.3200 2243.0000 1.0000
39.3400 2208.0000 1.0000
39.3600 2287.0000 1.0000
39.3800 2251.0000 1.0000
39.4000 2284.0000 1.0000
39.4200 2230.0000 1.0000
39.4400 2302.0000 1.0000
39.4600 2263.0000 1.0000
39.4800 2257.0000 1.0000
39.5000 2320.0000 1.0000
39.5200 2245.0000 1.0000
39.5400 2202.0000 1.0000
39.5600 2183.0000 1.0000
39.5800 2224.0000 1.0000
39.6000 2163.0000 1.0000
39.6200 2152.0000 1.0000
39.6400 2126.0000 1.0000
39.6600 2121.0000 1.0000
39.6800 2177.0000 1.0000
39.7000 2222.0000 1.0000
39.7200 2196.0000 1.0000
39.7400 2155.0000 1.0000
39.7600 2228.0000 1.0000
39.7800 2161.0000 1.0000
39.8000 2064.0000 1.0000
39.8200 2159.0000 1.0000
39.8400 2149.0000 1.0000
39.8600 2108.0000 1.0000
39.8800 2034.0000 1.0000
39.9000 2139.0000 1.0000
39.9200 2095.0000 1.0000
39.9400 2188.0000 1.0000
39.9600 2110.0000 1.0000
39.9800 2160.0000 1.0000
40.0000 2062.0000 1.0000
40.0200 2111.0000 1.0000
40.0400 2151.0000 1.0000
40.0600 2024.0000 1.0000
40.0800 2062.0000 1.0000
40.1000 2109.0000 1.0000
40.1200 2139.0000 1.0000
40.1400 2122.0000 1.0000
40.1600 2094.0000 1.0000
40.1800 2113.0000 1.0000
40.2000 2092.0000 1.0000
40.2200 2147.0000 1.0000
40.2400 2057.0000 1.0000
40.2600 2023.0000 1.0000
40.2800 2046.0000 1.0000
40.3000 2014.0000 1.0000
40.3200 2097.0000 1.0000
40.3400 2096.0000 1.0000
40.3600 2079.0000 1.0000
40.3800 2126.0000 1.0000
40.4000 2063.0000 1.0000
40.4200 2074.0000 1.0000
40.4400 2062.0000 1.0000
40.4600 2075.0000 1.0000
40.4800 2046.0000 1.0000
40.5000 2095.0000 1.0000
40.5200 2080.0000 1.0000
40.5400 2065.0000 1.0000
40.5600 2119.0000 1.0000
40.5800 2059.0000 1.0000
40.6000 2066.0000 1.0000
40.6200 2103.0000 1.0000
40.6400 2056.0000 1.0000
40.6600 2101.0000 1.0000
40.6800 2106.0000 1.0000
40.7000 2065.0000 1.0000
40.7200 2138.0000 1.0000
40.7400 2139.0000 1.0000
40.7600 2076.0000 1.0000
40.7800 2071.0000 1.0000
40.8000 2028.0000 1.0000
40.8200 2073.0000 1.0000
40.8400 2061.0000 1.0000
40.8600 2062.0000 1.0000
40.8800 2001.0000 1.0000
40.9000 2053.0000 1.0000
40.9200 2047.0000 1.0000
40.9400 2009.0000 1.0000
40.9600 2088.0000 1.0000
40.9800 2035.0000 1.0000
41.0000 2086.0000 1.0000
41.0200 2083.0000 1.0000
41.0400 2058.0000 1.0000
41.0600 2145.0000 1.0000
41.0800 2045.0000 1.0000
41.1000 2114.0000 1.0000
41.1200 2024.0000 1.0000
41.1400 2131.0000 1.0000
41.1600 2087.0000 1.0000
41.1800 2103.0000 1.0000
41.2000 2094.0000 1.0000
41.2200 2067.0000 1.0000
41.2400 2039.0000 1.0000
41.2600 2028.0000 1.0000
41.2800 2057.0000 1.0000
41.3000 2041.0000 1.0000
41.3200 2011.0000 1.0000
41.3400 2101.0000 1.0000
41.3600 2130.0000 1.0000
41.3800 2035.0000 1.0000
41.4000 2109.0000 1.0000
41.4200 2116.0000 1.0000
41.4400 2097.0000 1.0000
41.4600 2138.0000 1.0000
41.4800 2124.0000 1.0000
41.5000 2132.0000 1.0000
41.5200 2175.0000 1.0000
41.5400 2119.0000 1.0000
41.5600 2129.0000 1.0000
41.5800 2182.0000 1.0000
41.6000 2147.0000 1.0000
41.6200 2166.0000 1.0000
41.6400 2186.0000 1.0000
41.6600 2043.0000 1.0000
41.6800 2070.0000 1.0000
41.7000 2131.0000 1.0000
41.7200 2156.0000 1.0000
41.7400 2125.0000 1.0000
41.7600 2127.0000 1.0000
41.7800 2169.0000 1.0000
41.8000 2220.0000 1.0000
41.8200 2278.0000 1.0000
41.8400 2157.0000 1.0000
41.8600 2144.0000 1.0000
41.8800 2160.0000 1.0000
41.9000 2198.0000 1.0000
41.9200 2254.0000 1.0000
41.9400 2131.0000 1.0000
41.9600 2178.0000 1.0000
41.9800 2172.0000 1.0000
42.0000 2244.0000 1.0000
42.0200 2232.0000 1.0000
42.0400 2274.0000 1.0000
42.0600 2243.0000 1.0000
42.0800 2217.0000 1.0000
42.1000 2246.0000 1.0000
42.1200 2366.0000 1.0000
42.1400 2210.0000 1.0000
42.1600 2333.0000 1.0000
42.1800 2332.0000 1.0000
42.2000 2307.0000 1.0000
42.2200 2284.0000 1.0000
42.2400 2326.0000 1.0000
42.2600 2358.0000 1.0000
42.2800 2333.0000 1.0000
42.3000 2302.0000 1.0000
42.3200 2323.0000 1.0000
42.3400 2280.0000 1.0000
42.3600 2383.0000 1.0000
42.3800 2405.0000 1.0000
42.4000 2329.0000 1.0000
42.4200 2336.0000 1.0000
42.4400 2466.0000 1.0000
42.4600 2433.0000 1.0000
42.4800 2461.0000 1.0000
42.5000 2486.0000 1.0000
42.5200 2463.0000 1.0000
42.5400 2509.0000 1.0000
42.5600 2561.0000 1.0000
42.5800 2566.0000 1.0000
42.6000 2624.0000 1.0000
42.6200 2533.0000 1.0000
42.6400 2703.0000 1.0000
42.6600 2723.0000 1.0000
42.6800 2686.0000 1.0000
42.7000 2676.0000 1.0000
42.7200 2665.0000 1.0000
42.7400 2804.0000 1.0000
42.7600 2862.0000 1.0000
42.7800 2818.0000 1.0000
42.8000 2815.0000 1.0000
42.8200 2847.0000 1.0000
42.8400 2927.0000 1.0000
42.8600 2956.0000 1.0000
42.8800 2917.0000 1.0000
42.9000 2923.0000 1.0000
42.9200 2906.0000 1.0000
42.9400 3047.0000 1.0000
42.9600 3137.0000 1.0000
42.9800 3131.0000 1.0000
43.0000 3181.0000 1.0000
43.0200 3257.0000 1.0000
43.0400 3332.0000 1.0000
43.0600 3409.0000 1.0000
43.0800 3479.0000 1.0000
43.1000 3508.0000 1.0000
43.1200 3525.0000 1.0000
43.1400 3626.0000 1.0000
43.1600 3747.0000 1.0000
43.1800 3942.0000 1.0000
43.2000 3959.0000 1.0000
43.2200 4054.0000 1.0000
43.2400 4145.0000 1.0000
43.2600 4345.0000 1.0000
43.2800 4383.0000 1.0000
43.3000 4459.0000 1.0000
43.3200 4725.0000 1.0000
43.3400 4789.0000 1.0000
43.3600 4979.0000 1.0000
43.3800 5311.0000 1.0000
43.4000 5362.0000 1.0000
43.4200 5724.0000 1.0000
43.4400 5885.0000 1.0000
43.4600 6118.0000 1.0000
43.4800 6486.0000 1.0000
43.5000 6761.0000 1.0000
43.5200 6957.0000 1.0000
43.5400 7434.0000 1.0000
43.5600 7572.0000 1.0000
43.5800 8107.0000 1.0000
43.6000 8133.0000 1.0000
43.6200 8726.0000 1.0000
43.6400 9097.0000 1.0000
43.6600 9471.0000 1.0000
43.6800 9897.0000 1.0000
43.7000 10232.0000 1.0000
43.7200 10676.0000 1.0000
43.7400 11168.0000 1.0000
43.7600 11149.0000 1.0000
43.7800 11609.0000 1.0000
43.8000 12164.0000 1.0000
43.8200 12242.0000 1.0000
43.8400 12200.0000 1.0000
43.8600 12622.0000 1.0000
43.8800 12787.0000 1.0000
43.9000 12844.0000 1.0000
43.9200 12836.0000 1.0000
43.9400 12642.0000 1.0000
43.9600 12674.0000 1.0000
43.9800 12658.0000 1.0000
44.0000 12262.0000 1.0000
44.0200 12158.0000 1.0000
44.0400 11984.0000 1.0000
44.0600 11518.0000 1.0000
44.0800 11142.0000 1.0000
44.1000 11094.0000 1.0000
44.1200 10811.0000 1.0000
44.1400 10525.0000 1.0000
44.1600 10097.0000 1.0000
44.1800 9865.0000 1.0000
44.2000 9761.0000 1.0000
44.2200 9343.0000 1.0000
44.2400 9057.0000 1.0000
44.2600 8818.0000 1.0000
44.2800 8597.0000 1.0000
44.3000 8485.0000 1.0000
44.3200 8186.0000 1.0000
44.3400 7999.0000 1.0000
44.3600 7914.0000 1.0000
44.3800 7578.0000 1.0000
44.4000 7359.0000 1.0000
44.4200 7200.0000 1.0000
44.4400 6999.0000 1.0000
44.4600 6914.0000 1.0000
44.4800 6792.0000 1.0000
44.5000 6684.0000 1.0000
44.5200 6553.0000 1.0000
44.5400 6493.0000 1.0000
44.5600 6181.0000 1.0000
44.5800 6143.0000 1.0000
44.6000 6081.0000 1.0000
44.6200 6048.0000 1.0000
44.6400 5926.0000 1.0000
44.6600 5877.0000 1.0000
44.6800 5760.0000 1.0000
44.7000 5771.0000 1.0000
44.7200 5508.0000 1.0000
44.7400 5302.0000 1.0000
44.7600 5387.0000 1.0000
44.7800 5181.0000 1.0000
44.8000 5241.0000 1.0000
44.8200 5091.0000 1.0000
44.8400 5048.0000 1.0000
44.8600 5035.0000 1.0000
44.8800 4970.0000 1.0000
44.9000 4854.0000 1.0000
44.9200 4718.0000 1.0000
44.9400 4767.0000 1.0000
44.9600 4806.0000 1.0000
44.9800 4758.0000 1.0000
45.0000 4639.0000 1.0000
45.0200 4653.0000 1.0000
45.0400 4515.0000 1.0000
45.0600 4436.0000 1.0000
45.0800 4477.0000 1.0000
45.1000 4401.0000 1.0000
45.1200 4375.0000 1.0000
45.1400 4331.0000 1.0000
45.1600 4303.0000 1.0000
45.1800 4214.0000 1.0000
45.2000 4259.0000 1.0000
45.2200 4261.0000 1.0000
45.2400 4232.0000 1.0000
45.2600 4155.0000 1.0000
45.2800 4139.0000 1.0000
45.3000 4129.0000 1.0000
45.3200 4090.0000 1.0000
45.3400 3999.0000 1.0000
45.3600 3955.0000 1.0000
45.3800 4034.0000 1.0000
45.4000 4025.0000 1.0000
45.4200 3941.0000 1.0000
45.4400 4036.0000 1.0000
45.4600 3869.0000 1.0000
45.4800 3928.0000 1.0000
45.5000 3889.0000 1.0000
45.5200 3933.0000 1.0000
45.5400 3926.0000 1.0000
45.5600 3814.0000 1.0000
45.5800 3824.0000 1.0000
45.6000 3804.0000 1.0000
45.6200 3920.0000 1.0000
45.6400 3681.0000 1.0000
45.6600 3762.0000 1.0000
45.6800 3712.0000 1.0000
45.7000 3763.0000 1.0000
45.7200 3760.0000 1.0000
45.7400 3655.0000 1.0000
45.7600 3694.0000 1.0000
45.7800 3766.0000 1.0000
45.8000 3752.0000 1.0000
45.8200 3680.0000 1.0000
45.8400 3752.0000 1.0000
45.8600 3631.0000 1.0000
45.8800 3597.0000 1.0000
45.9000 3699.0000 1.0000
45.9200 3678.0000 1.0000
45.9400 3598.0000 1.0000
45.9600 3678.0000 1.0000
45.9800 3671.0000 1.0000
46.0000 3712.0000 1.0000
46.0200 3631.0000 1.0000
46.0400 3606.0000 1.0000
46.0600 3664.0000 1.0000
46.0800 3561.0000 1.0000
46.1000 3586.0000 1.0000
46.1200 3598.0000 1.0000
46.1400 3551.0000 1.0000
46.1600 3593.0000 1.0000
46.1800 3615.0000 1.0000
46.2000 3672.0000 1.0000
46.2200 3598.0000 1.0000
46.2400 3548.0000 1.0000
46.2600 3632.0000 1.0000
46.2800 3621.0000 1.0000
46.3000 3557.0000 1.0000
46.3200 3709.0000 1.0000
46.3400 3628.0000 1.0000
46.3600 3602.0000 1.0000
46.3800 3595.0000 1.0000
46.4000 3691.0000 1.0000
46.4200 3666.0000 1.0000
46.4400 3551.0000 1.0000
46.4600 3687.0000 1.0000
46.4800 3756.0000 1.0000
46.5000 3707.0000 1.0000
46.5200 3599.0000 1.0000
46.5400 3686.0000 1.0000
46.5600 3770.0000 1.0000
46.5800 3787.0000 1.0000
46.6000 3738.0000 1.0000
46.6200 3947.0000 1.0000
46.6400 3886.0000 1.0000
46.6600 3897.0000 1.0000
46.6800 3909.0000 1.0000
46.7000 3825.0000 1.0000
46.7200 3894.0000 1.0000
46.7400 3909.0000 1.0000
46.7600 3969.0000 1.0000
46.7800 3855.0000 1.0000
46.8000 4111.0000 1.0000
46.8200 4128.0000 1.0000
46.8400 4088.0000 1.0000
46.8600 4063.0000 1.0000
46.8800 4169.0000 1.0000
46.9000 4165.0000 1.0000
46.9200 4147.0000 1.0000
46.9400 4251.0000 1.0000
46.9600 4265.0000 1.0000
46.9800 4269.0000 1.0000
47.0000 4294.0000 1.0000
47.0200 4450.0000 1.0000
47.0400 4450.0000 1.0000
47.0600 4484.0000 1.0000
47.0800 4513.0000 1.0000
47.1000 4560.0000 1.0000
47.1200 4664.0000 1.0000
47.1400 4709.0000 1.0000
47.1600 4744.0000 1.0000
47.1800 4770.0000 1.0000
47.2000 4984.0000 1.0000
47.2200 5061.0000 1.0000
47.2400 5003.0000 1.0000
47.2600 5156.0000 1.0000
47.2800 5181.0000 1.0000
47.3000 5327.0000 1.0000
47.3200 5387.0000 1.0000
47.3400 5478.0000 1.0000
47.3600 5560.0000 1.0000
47.3800 5924.0000 1.0000
47.4000 5784.0000 1.0000
47.4200 5821.0000 1.0000
47.4400 6014.0000 1.0000
47.4600 6202.0000 1.0000
47.4800 6232.0000 1.0000
47.5000 6397.0000 1.0000
47.5200 6549.0000 1.0000
47.5400 6704.0000 1.0000
47.5600 6745.0000 1.0000
47.5800 6943.0000 1.0000
47.6000 6854.0000 1.0000
47.6200 7041.0000 1.0000
47.6400 7250.0000 1.0000
47.6600 7223.0000 1.0000
47.6800 7294.0000 1.0000
47.7000 7642.0000 1.0000
47.7200 7764.0000 1.0000
47.7400 8041.0000 1.0000
47.7600 8183.0000 1.0000
47.7800 8339.0000 1.0000
47.8000 8676.0000 1.0000
47.8200 8683.0000 1.0000
47.8400 9012.0000 1.0000
47.8600 9195.0000 1.0000
47.8800 9389.0000 1.0000
47.9000 9884.0000 1.0000
47.9200 10031.0000 1.0000
47.9400 10190.0000 1.0000
47.9600 10468.0000 1.0000
47.9800 10750.0000 1.0000
48.0000 10497.0000 1.0000
48.0200 10766.0000 1.0000
48.0400 10976.0000 1.0000
48.0600 10767.0000 1.0000
48.0800 11002.0000 1.0000
48.1000 10945.0000 1.0000
48.1200 10915.0000 1.0000
48.1400 10759.0000 1.0000
48.1600 10719.0000 1.0000
48.1800 10437.0000 1.0000
48.2000 10475.0000 1.0000
48.2200 10170.0000 1.0000
48.2400 10004.0000 1.0000
48.2600 9705.0000 1.0000
48.2800 9675.0000 1.0000
48.3000 9466.0000 1.0000
48.3200 9023.0000 1.0000
48.3400 8924.0000 1.0000
48.3600 8608.0000 1.0000
48.3800 8339.0000 1.0000
48.4000 8341.0000 1.0000
48.4200 8105.0000 1.0000
48.4400 7816.0000 1.0000
48.4600 7901.0000 1.0000
48.4800 7288.0000 1.0000
48.5000 7268.0000 1.0000
48.5200 7001.0000 1.0000
48.5400 6835.0000 1.0000
48.5600 6773.0000 1.0000
48.5800 6590.0000 1.0000
48.6000 6458.0000 1.0000
48.6200 6230.0000 1.0000
48.6400 6095.0000 1.0000
48.6600 6054.0000 1.0000
48.6800 5921.0000 1.0000
48.7000 5759.0000 1.0000
48.7200 5684.0000 1.0000
48.7400 5583.0000 1.0000
48.7600 5591.0000 1.0000
48.7800 5526.0000 1.0000
48.8000 5314.0000 1.0000
48.8200 5214.0000 1.0000
48.8400 5263.0000 1.0000
48.8600 4975.0000 1.0000
48.8800 4912.0000 1.0000
48.9000 4796.0000 1.0000
48.9200 4852.0000 1.0000
48.9400 4718.0000 1.0000
48.9600 4741.0000 1.0000
48.9800 4545.0000 1.0000
49.0000 4523.0000 1.0000
49.0200 4564.0000 1.0000
49.0400 4391.0000 1.0000
49.0600 4455.0000 1.0000
49.0800 4353.0000 1.0000
49.1000 4201.0000 1.0000
49.1200 4174.0000 1.0000
49.1400 4137.0000 1.0000
49.1600 4157.0000 1.0000
49.1800 4039.0000 1.0000
49.2000 3973.0000 1.0000
49.2200 3970.0000 1.0000
49.2400 3879.0000 1.0000
49.2600 3890.0000 1.0000
49.2800 3846.0000 1.0000
49.3000 3782.0000 1.0000
49.3200 3746.0000 1.0000
49.3400 3813.0000 1.0000
49.3600 3723.0000 1.0000
49.3800 3716.0000 1.0000
49.4000 3578.0000 1.0000
49.4200 3622.0000 1.0000
49.4400 3549.0000 1.0000
49.4600 3543.0000 1.0000
49.4800 3537.0000 1.0000
49.5000 3457.0000 1.0000
49.5200 3395.0000 1.0000
49.5400 3389.0000 1.0000
49.5600 3329.0000 1.0000
49.5800 3467.0000 1.0000
49.6000 3393.0000 1.0000
49.6200 3407.0000 1.0000
49.6400 3369.0000 1.0000
49.6600 3374.0000 1.0000
49.6800 3217.0000 1.0000
49.7000 3221.0000 1.0000
49.7200 3324.0000 1.0000
49.7400 3262.0000 1.0000
49.7600 3223.0000 1.0000
49.7800 3231.0000 1.0000
49.8000 3223.0000 1.0000
49.8200 3203.0000 1.0000
49.8400 3138.0000 1.0000
49.8600 3199.0000 1.0000
49.8800 3178.0000 1.0000
49.9000 3209.0000 1.0000
49.9200 3211.0000 1.0000
49.9400 3118.0000 1.0000
49.9600 3084.0000 1.0000
49.9800 3149.0000 1.0000
50.0000 3122.0000 1.0000
50.0200 3146.0000 1.0000
50.0400 3114.0000 1.0000
50.0600 3113.0000 1.0000
50.0800 3093.0000 1.0000
50.1000 3146.0000 1.0000
50.1200 3111.0000 1.0000
50.1400 3091.0000 1.0000
50.1600 3025.0000 1.0000
50.1800 3108.0000 1.0000
50.2000 3092.0000 1.0000
50.2200 3080.0000 1.0000
50.2400 3141.0000 1.0000
50.2600 3137.0000 1.0000
50.2800 3060.0000 1.0000
50.3000 3217.0000 1.0000
50.3200 3200.0000 1.0000
50.3400 3230.0000 1.0000
50.3600 3189.0000 1.0000
50.3800 3170.0000 1.0000
50.4000 3219.0000 1.0000
50.4200 3130.0000 1.0000
50.4400 3243.0000 1.0000
50.4600 3208.0000 1.0000
50.4800 3209.0000 1.0000
50.5000 3263.0000 1.0000
50.5200 3257.0000 1.0000
50.5400 3384.0000 1.0000
50.5600 3370.0000 1.0000
50.5800 3380.0000 1.0000
50.6000 3366.0000 1.0000
50.6200 3467.0000 1.0000
50.6400 3501.0000 1.0000
50.6600 3473.0000 1.0000
50.6800 3544.0000 1.0000
50.7000 3508.0000 1.0000
50.7200 3606.0000 1.0000
50.7400 3631.0000 1.0000
50.7600 3668.0000 1.0000
50.7800 3599.0000 1.0000
50.8000 3719.0000 1.0000
50.8200 3795.0000 1.0000
50.8400 3918.0000 1.0000
50.8600 3903.0000 1.0000
50.8800 4004.0000 1.0000
50.9000 4025.0000 1.0000
50.9200 4070.0000 1.0000
50.9400 4218.0000 1.0000
50.9600 4244.0000 1.0000
50.9800 4345.0000 1.0000
51.0000 4195.0000 1.0000
51.0200 4356.0000 1.0000
51.0400 4377.0000 1.0000
51.0600 4469.0000 1.0000
51.0800 4538.0000 1.0000
51.1000 4585.0000 1.0000
51.1200 4580.0000 1.0000
51.1400 4654.0000 1.0000
51.1600 4738.0000 1.0000
51.1800 4746.0000 1.0000
51.2000 4641.0000 1.0000
51.2200 4794.0000 1.0000
51.2400 4942.0000 1.0000
51.2600 4769.0000 1.0000
51.2800 4918.0000 1.0000
51.3000 4984.0000 1.0000
51.3200 4894.0000 1.0000
51.3400 4985.0000 1.0000
51.3600 4940.0000 1.0000
51.3800 5136.0000 1.0000
51.4000 5080.0000 1.0000
51.4200 5171.0000 1.0000
51.4400 5167.0000 1.0000
51.4600 5358.0000 1.0000
51.4800 5248.0000 1.0000
51.5000 5378.0000 1.0000
51.5200 5505.0000 1.0000
51.5400 5635.0000 1.0000
51.5600 5722.0000 1.0000
51.5800 5919.0000 1.0000
51.6000 5826.0000 1.0000
51.6200 5978.0000 1.0000
51.6400 6309.0000 1.0000
51.6600 6508.0000 1.0000
51.6800 6560.0000 1.0000
51.7000 6842.0000 1.0000
51.7200 6825.0000 1.0000
51.7400 7049.0000 1.0000
51.7600 7066.0000 1.0000
51.7800 7440.0000 1.0000
51.8000 7641.0000 1.0000
51.8200 7751.0000 1.0000
51.8400 8152.0000 1.0000
51.8600 8253.0000 1.0000
51.8800 8379.0000 1.0000
51.9000 8433.0000 1.0000
51.9200 8639.0000 1.0000
51.9400 8920.0000 1.0000
51.9600 8961.0000 1.0000
51.9800 8974.0000 1.0000
52.0000 9057.0000 1.0000
52.0200 8937.0000 1.0000
52.0400 9266.0000 1.0000
52.0600 9384.0000 1.0000
52.0800 9402.0000 1.0000
52.1000 9418.0000 1.0000
52.1200 9479.0000 1.0000
52.1400 9306.0000 1.0000
52.1600 9312.0000 1.0000
52.1800 9275.0000 1.0000
52.2000 9082.0000 1.0000
52.2200 8946.0000 1.0000
52.2400 8971.0000 1.0000
52.2600 8814.0000 1.0000
52.2800 8833.0000 1.0000
52.3000 8748.0000 1.0000
52.3200 8342.0000 1.0000
52.3400 8334.0000 1.0000
52.3600 8321.0000 1.0000
52.3800 8094.0000 1.0000
52.4000 8131.0000 1.0000
52.4200 7838.0000 1.0000
52.4400 7740.0000 1.0000
52.4600 7625.0000 1.0000
52.4800 7522.0000 1.0000
52.5000 7274.0000 1.0000
52.5200 7266.0000 1.0000
52.5400 7340.0000 1.0000
52.5600 7185.0000 1.0000
52.5800 7048.0000 1.0000
52.6000 6950.0000 1.0000
52.6200 6877.0000 1.0000
52.6400 6899.0000 1.0000
52.6600 6857.0000 1.0000
52.6800 6693.0000 1.0000
52.7000 6842.0000 1.0000
52.7200 6652.0000 1.0000
52.7400 6666.0000 1.0000
52.7600 6624.0000 1.0000
52.7800 6912.0000 1.0000
52.8000 6813.0000 1.0000
52.8200 6542.0000 1.0000
52.8400 6726.0000 1.0000
52.8600 6624.0000 1.0000
52.8800 6836.0000 1.0000
52.9000 6655.0000 1.0000
52.9200 6577.0000 1.0000
52.9400 6680.0000 1.0000
52.9600 6709.0000 1.0000
52.9800 6678.0000 1.0000
53.0000 6565.0000 1.0000
53.0200 6524.0000 1.0000
53.0400 6478.0000 1.0000
53.0600 6552.0000 1.0000
53.0800 6408.0000 1.0000
53.1000 6410.0000 1.0000
53.1200 6356.0000 1.0000
53.1400 6203.0000 1.0000
53.1600 6137.0000 1.0000
53.1800 6114.0000 1.0000
53.2000 5986.0000 1.0000
53.2200 5979.0000 1.0000
53.2400 5883.0000 1.0000
53.2600 5843.0000 1.0000
53.2800 5846.0000 1.0000
53.3000 5704.0000 1.0000
53.3200 5581.0000 1.0000
53.3400 5445.0000 1.0000
53.3600 5500.0000 1.0000
53.3800 5401.0000 1.0000
53.4000 5260.0000 1.0000
53.4200 5061.0000 1.0000
53.4400 5049.0000 1.0000
53.4600 4924.0000 1.0000
53.4800 4814.0000 1.0000
53.5000 4798.0000 1.0000
53.5200 4798.0000 1.0000
53.5400 4688.0000 1.0000
53.5600 4551.0000 1.0000
53.5800 4571.0000 1.0000
53.6000 4392.0000 1.0000
53.6200 4540.0000 1.0000
53.6400 4492.0000 1.0000
53.6600 4296.0000 1.0000
53.6800 4345.0000 1.0000
53.7000 4307.0000 1.0000
53.7200 4217.0000 1.0000
53.7400 4070.0000 1.0000
53.7600 4071.0000 1.0000
53.7800 4037.0000 1.0000
53.8000 4067.0000 1.0000
53.8200 3966.0000 1.0000
53.8400 3890.0000 1.0000
53.8600 3881.0000 1.0000
53.8800 3851.0000 1.0000
53.9000 3857.0000 1.0000
53.9200 3669.0000 1.0000
53.9400 3807.0000 1.0000
53.9600 3721.0000 1.0000
53.9800 3584.0000 1.0000
54.0000 3519.0000 1.0000
54.0200 3642.0000 1.0000
54.0400 3661.0000 1.0000
54.0600 3531.0000 1.0000
54.0800 3462.0000 1.0000
54.1000 3461.0000 1.0000
54.1200 3457.0000 1.0000
54.1400 3438.0000 1.0000
54.1600 3466.0000 1.0000
54.1800 3310.0000 1.0000
54.2000 3409.0000 1.0000
54.2200 3314.0000 1.0000
54.2400 3326.0000 1.0000
54.2600 3344.0000 1.0000
54.2800 3260.0000 1.0000
54.3000 3292.0000 1.0000
54.3200 3243.0000 1.0000
54.3400 3233.0000 1.0000
54.3600 3193.0000 1.0000
54.3800 3252.0000 1.0000
54.4000 3156.0000 1.0000
54.4200 3231.0000 1.0000
54.4400 3193.0000 1.0000
54.4600 3321.0000 1.0000
54.4800 3141.0000 1.0000
54.5000 3121.0000 1.0000
54.5200 3197.0000 1.0000
54.5400 3230.0000 1.0000
54.5600 3222.0000 1.0000
54.5800 3218.0000 1.0000
54.6000 3279.0000 1.0000
54.6200 3175.0000 1.0000
54.6400 3134.0000 1.0000
54.6600 3275.0000 1.0000
54.6800 3143.0000 1.0000
54.7000 3176.0000 1.0000
54.7200 3196.0000 1.0000
54.7400 3166.0000 1.0000
54.7600 3332.0000 1.0000
54.7800 3273.0000 1.0000
54.8000 3339.0000 1.0000
54.8200 3230.0000 1.0000
54.8400 3308.0000 1.0000
54.8600 3308.0000 1.0000
54.8800 3167.0000 1.0000
54.9000 3291.0000 1.0000
54.9200 3186.0000 1.0000
54.9400 3176.0000 1.0000
54.9600 3137.0000 1.0000
54.9800 3146.0000 1.0000
55.0000 3107.0000 1.0000
55.0200 3067.0000 1.0000
55.0400 2986.0000 1.0000
55.0600 2980.0000 1.0000
55.0800 2966.0000 1.0000
55.1000 2896.0000 1.0000
55.1200 3006.0000 1.0000
55.1400 2966.0000 1.0000
55.1600 2815.0000 1.0000
55.1800 2834.0000 1.0000
55.2000 2902.0000 1.0000
55.2200 2856.0000 1.0000
55.2400 2796.0000 1.0000
55.2600 2754.0000 1.0000
55.2800 2856.0000 1.0000
55.3000 2714.0000 1.0000
55.3200 2748.0000 1.0000
55.3400 2751.0000 1.0000
55.3600 2742.0000 1.0000
55.3800 2781.0000 1.0000
55.4000 2695.0000 1.0000
55.4200 2614.0000 1.0000
55.4400 2677.0000 1.0000
55.4600 2660.0000 1.0000
55.4800 2687.0000 1.0000
55.5000 2662.0000 1.0000
55.5200 2671.0000 1.0000
55.5400 2588.0000 1.0000
55.5600 2597.0000 1.0000
55.5800 2636.0000 1.0000
55.6000 2606.0000 1.0000
55.6200 2526.0000 1.0000
55.6400 2610.0000 1.0000
55.6600 2613.0000 1.0000
55.6800 2649.0000 1.0000
55.7000 2581.0000 1.0000
55.7200 2605.0000 1.0000
55.7400 2601.0000 1.0000
55.7600 2574.0000 1.0000
55.7800 2610.0000 1.0000
55.8000 2631.0000 1.0000
55.8200 2524.0000 1.0000
55.8400 2588.0000 1.0000
55.8600 2510.0000 1.0000
55.8800 2567.0000 1.0000
55.9000 2619.0000 1.0000
55.9200 2592.0000 1.0000
55.9400 2598.0000 1.0000
55.9600 2601.0000 1.0000
55.9800 2575.0000 1.0000
56.0000 2499.0000 1.0000
56.0200 2645.0000 1.0000
56.0400 2620.0000 1.0000
56.0600 2678.0000 1.0000
56.0800 2663.0000 1.0000
56.1000 2537.0000 1.0000
56.1200 2634.0000 1.0000
56.1400 2668.0000 1.0000
56.1600 2476.0000 1.0000
56.1800 2637.0000 1.0000
56.2000 2634.0000 1.0000
56.2200 2585.0000 1.0000
56.2400 2553.0000 1.0000
56.2600 2697.0000 1.0000
56.2800 2667.0000 1.0000
56.3000 2596.0000 1.0000
56.3200 2592.0000 1.0000
56.3400 2551.0000 1.0000
56.3600 2588.0000 1.0000
56.3800 2571.0000 1.0000
56.4000 2570.0000 1.0000
56.4200 2519.0000 1.0000
56.4400 2498.0000 1.0000
56.4600 2471.0000 1.0000
56.4800 2494.0000 1.0000
56.5000 2408.0000 1.0000
56.5200 2316.0000 1.0000
56.5400 2410.0000 1.0000
56.5600 2291.0000 1.0000
56.5800 2294.0000 1.0000
56.6000 2259.0000 1.0000
56.6200 2201.0000 1.0000
56.6400 2178.0000 1.0000
56.6600 2127.0000 1.0000
56.6800 2213.0000 1.0000
56.7000 2169.0000 1.0000
56.7200 2123.0000 1.0000
56.7400 2019.0000 1.0000
56.7600 2011.0000 1.0000
56.7800 2077.0000 1.0000
56.8000 2079.0000 1.0000
56.8200 2073.0000 1.0000
56.8400 1997.0000 1.0000
56.8600 1992.0000 1.0000
56.8800 2053.0000 1.0000
56.9000 1922.0000 1.0000
56.9200 1956.0000 1.0000
56.9400 1938.0000 1.0000
56.9600 1943.0000 1.0000
56.9800 1903.0000 1.0000
57.0000 1961.0000 1.0000
57.0200 1886.0000 1.0000
57.0400 2015.0000 1.0000
57.0600 1863.0000 1.0000
57.0800 1883.0000 1.0000
57.1000 1931.0000 1.0000
57.1200 1869.0000 1.0000
57.1400 1886.0000 1.0000
57.1600 1889.0000 1.0000
57.1800 1879.0000 1.0000
57.2000 1872.0000 1.0000
57.2200 1829.0000 1.0000
57.2400 1873.0000 1.0000
57.2600 1896.0000 1.0000
57.2800 1838.0000 1.0000
57.3000 1826.0000 1.0000
57.3200 1909.0000 1.0000
57.3400 1899.0000 1.0000
57.3600 1881.0000 1.0000
57.3800 1842.0000 1.0000
57.4000 1835.0000 1.0000
57.4200 1862.0000 1.0000
57.4400 1828.0000 1.0000
57.4600 1794.0000 1.0000
57.4800 1870.0000 1.0000
57.5000 1895.0000 1.0000
57.5200 1764.0000 1.0000
57.5400 1881.0000 1.0000
57.5600 1847.0000 1.0000
57.5800 1854.0000 1.0000
57.6000 1866.0000 1.0000
57.6200 1888.0000 1.0000
57.6400 1833.0000 1.0000
57.6600 1806.0000 1.0000
57.6800 1892.0000 1.0000
57.7000 1961.0000 1.0000
57.7200 1867.0000 1.0000
57.7400 1826.0000 1.0000
57.7600 1853.0000 1.0000
57.7800 1814.0000 1.0000
57.8000 1847.0000 1.0000
57.8200 1916.0000 1.0000
57.8400 1928.0000 1.0000
57.8600 1933.0000 1.0000
57.8800 1838.0000 1.0000
57.9000 1915.0000 1.0000
57.9200 1885.0000 1.0000
57.9400 1822.0000 1.0000
57.9600 1955.0000 1.0000
57.9800 1956.0000 1.0000
58.0000 1961.0000 1.0000
58.0200 1948.0000 1.0000
58.0400 2031.0000 1.0000
58.0600 2017.0000 1.0000
58.0800 2017.0000 1.0000
58.1000 1987.0000 1.0000
58.1200 1939.0000 1.0000
58.1400 1998.0000 1.0000
58.1600 1970.0000 1.0000
58.1800 2061.0000 1.0000
58.2000 2051.0000 1.0000
58.2200 2085.0000 1.0000
58.2400 2067.0000 1.0000
58.2600 2110.0000 1.0000
58.2800 2141.0000 1.0000
58.3000 2127.0000 1.0000
58.3200 2186.0000 1.0000
58.3400 2169.0000 1.0000
58.3600 2159.0000 1.0000
58.3800 2219.0000 1.0000
58.4000 2245.0000 1.0000
58.4200 2254.0000 1.0000
58.4400 2271.0000 1.0000
58.4600 2199.0000 1.0000
58.4800 2242.0000 1.0000
58.5000 2206.0000 1.0000
58.5200 2254.0000 1.0000
58.5400 2244.0000 1.0000
58.5600 2196.0000 1.0000
58.5800 2300.0000 1.0000
58.6000 2306.0000 1.0000
58.6200 2146.0000 1.0000
58.6400 2260.0000 1.0000
58.6600 2202.0000 1.0000
58.6800 2151.0000 1.0000
58.7000 2250.0000 1.0000
58.7200 2159.0000 1.0000
58.7400 2166.0000 1.0000
58.7600 2158.0000 1.0000
58.7800 2154.0000 1.0000
58.8000 2080.0000 1.0000
58.8200 2058.0000 1.0000
58.8400 2183.0000 1.0000
58.8600 2054.0000 1.0000
58.8800 2152.0000 1.0000
58.9000 2075.0000 1.0000
58.9200 2084.0000 1.0000
58.9400 2135.0000 1.0000
58.9600 2009.0000 1.0000
58.9800 2056.0000 1.0000
59.0000 1988.0000 1.0000
59.0200 2023.0000 1.0000
59.0400 1997.0000 1.0000
59.0600 1984.0000 1.0000
59.0800 1995.0000 1.0000
59.1000 1942.0000 1.0000
59.1200 1923.0000 1.0000
59.1400 1922.0000 1.0000
59.1600 1904.0000 1.0000
59.1800 1930.0000 1.0000
59.2000 1949.0000 1.0000
59.2200 1889.0000 1.0000
59.2400 1832.0000 1.0000
59.2600 1885.0000 1.0000
59.2800 1863.0000 1.0000
59.3000 1821.0000 1.0000
59.3200 1917.0000 1.0000
59.3400 1847.0000 1.0000
59.3600 1846.0000 1.0000
59.3800 1897.0000 1.0000
59.4000 1790.0000 1.0000
59.4200 1727.0000 1.0000
59.4400 1800.0000 1.0000
59.4600 1802.0000 1.0000
59.4800 1749.0000 1.0000
59.5000 1787.0000 1.0000
59.5200 1719.0000 1.0000
59.5400 1741.0000 1.0000
59.5600 1826.0000 1.0000
59.5800 1748.0000 1.0000
59.6000 1702.0000 1.0000
59.6200 1704.0000 1.0000
59.6400 1663.0000 1.0000
59.6600 1647.0000 1.0000
59.6800 1703.0000 1.0000
59.7000 1720.0000 1.0000
59.7200 1755.0000 1.0000
59.7400 1775.0000 1.0000
59.7600 1717.0000 1.0000
59.7800 1743.0000 1.0000
59.8000 1672.0000 1.0000
59.8200 1691.0000 1.0000
59.8400 1659.0000 1.0000
59.8600 1591.0000 1.0000
59.8800 1648.0000 1.0000
59.9000 1642.0000 1.0000
59.9200 1629.0000 1.0000
59.9400 1616.0000 1.0000
59.9600 1717.0000 1.0000
59.9800 1643.0000 1.0000
60.0000 1642.0000 1.0000
60.0200 1624.0000 1.0000
60.0400 1678.0000 1.0000
60.0600 1652.0000 1.0000
60.0800 1657.0000 1.0000
60.1000 1683.0000 1.0000
60.1200 1701.0000 1.0000
60.1400 1600.0000 1.0000
60.1600 1626.0000 1.0000
60.1800 1621.0000 1.0000
60.2000 1553.0000 1.0000
60.2200 1638.0000 1.0000
60.2400 1601.0000 1.0000
60.2600 1606.0000 1.0000
60.2800 1565.0000 1.0000
60.3000 1591.0000 1.0000
60.3200 1626.0000 1.0000
60.3400 1611.0000 1.0000
60.3600 1640.0000 1.0000
60.3800 1608.0000 1.0000
60.4000 1551.0000 1.0000
60.4200 1642.0000 1.0000
60.4400 1689.0000 1.0000
60.4600 1635.0000 1.0000
60.4800 1572.0000 1.0000
60.5000 1596.0000 1.0000
60.5200 1685.0000 1.0000
60.5400 1669.0000 1.0000
60.5600 1594.0000 1.0000
60.5800 1579.0000 1.0000
60.6000 1659.0000 1.0000
60.6200 1606.0000 1.0000
60.6400 1621.0000 1.0000
60.6600 1660.0000 1.0000
60.6800 1674.0000 1.0000
60.7000 1621.0000 1.0000
60.7200 1637.0000 1.0000
60.7400 1664.0000 1.0000
60.7600 1645.0000 1.0000
60.7800 1634.0000 1.0000
60.8000 1604.0000 1.0000
60.8200 1702.0000 1.0000
60.8400 1706.0000 1.0000
60.8600 1603.0000 1.0000
60.8800 1637.0000 1.0000
60.9000 1682.0000 1.0000
60.9200 1638.0000 1.0000
60.9400 1676.0000 1.0000
60.9600 1684.0000 1.0000
60.9800 1642.0000 1.0000
61.0000 1685.0000 1.0000
61.0200 1569.0000 1.0000
61.0400 1616.0000 1.0000
61.0600 1623.0000 1.0000
61.0800 1733.0000 1.0000
61.1000 1637.0000 1.0000
61.1200 1678.0000 1.0000
61.1400 1660.0000 1.0000
61.1600 1680.0000 1.0000
61.1800 1639.0000 1.0000
61.2000 1674.0000 1.0000
61.2200 1631.0000 1.0000
61.2400 1646.0000 1.0000
61.2600 1674.0000 1.0000
61.2800 1738.0000 1.0000
61.3000 1640.0000 1.0000
61.3200 1574.0000 1.0000
61.3400 1713.0000 1.0000
61.3600 1593.0000 1.0000
61.3800 1619.0000 1.0000
61.4000 1630.0000 1.0000
61.4200 1559.0000 1.0000
61.4400 1521.0000 1.0000
61.4600 1671.0000 1.0000
61.4800 1657.0000 1.0000
61.5000 1632.0000 1.0000
61.5200 1622.0000 1.0000
61.5400 1586.0000 1.0000
61.5600 1595.0000 1.0000
61.5800 1647.0000 1.0000
61.6000 1586.0000 1.0000
61.6200 1594.0000 1.0000
61.6400 1607.0000 1.0000
61.6600 1631.0000 1.0000
61.6800 1635.0000 1.0000
61.7000 1527.0000 1.0000
61.7200 1636.0000 1.0000
61.7400 1590.0000 1.0000
61.7600 1517.0000 1.0000
61.7800 1536.0000 1.0000
61.8000 1509.0000 1.0000
61.8200 1513.0000 1.0000
61.8400 1585.0000 1.0000
61.8600 1557.0000 1.0000
61.8800 1568.0000 1.0000
61.9000 1516.0000 1.0000
61.9200 1586.0000 1.0000
61.9400 1556.0000 1.0000
61.9600 1486.0000 1.0000
61.9800 1481.0000 1.0000
62.0000 1441.0000 1.0000
62.0200 1470.0000 1.0000
62.0400 1475.0000 1.0000
62.0600 1527.0000 1.0000
62.0800 1534.0000 1.0000
62.1000 1461.0000 1.0000
62.1200 1459.0000 1.0000
62.1400 1438.0000 1.0000
62.1600 1516.0000 1.0000
62.1800 1480.0000 1.0000
62.2000 1513.0000 1.0000
62.2200 1507.0000 1.0000
62.2400 1555.0000 1.0000
62.2600 1455.0000 1.0000
62.2800 1442.0000 1.0000
62.3000 1401.0000 1.0000
62.3200 1482.0000 1.0000
62.3400 1465.0000 1.0000
62.3600 1491.0000 1.0000
62.3800 1442.0000 1.0000
62.4000 1441.0000 1.0000
62.4200 1379.0000 1.0000
62.4400 1459.0000 1.0000
62.4600 1484.0000 1.0000
62.4800 1442.0000 1.0000
62.5000 1428.0000 1.0000
62.5200 1462.0000 1.0000
62.5400 1456.0000 1.0000
62.5600 1450.0000 1.0000
62.5800 1477.0000 1.0000
62.6000 1436.0000 1.0000
62.6200 1467.0000 1.0000
62.6400 1410.0000 1.0000
62.6600 1447.0000 1.0000
62.6800 1420.0000 1.0000
62.7000 1441.0000 1.0000
62.7200 1452.0000 1.0000
62.7400 1404.0000 1.0000
62.7600 1427.0000 1.0000
62.7800 1399.0000 1.0000
62.8000 1353.0000 1.0000
62.8200 1411.0000 1.0000
62.8400 1417.0000 1.0000
62.8600 1490.0000 1.0000
62.8800 1483.0000 1.0000
62.9000 1442.0000 1.0000
62.9200 1444.0000 1.0000
62.9400 1456.0000 1.0000
62.9600 1362.0000 1.0000
62.9800 1471.0000 1.0000
63.0000 1438.0000 1.0000
63.0200 1441.0000 1.0000
63.0400 1440.0000 1.0000
63.0600 1402.0000 1.0000
63.0800 1420.0000 1.0000
63.1000 1339.0000 1.0000
63.1200 1479.0000 1.0000
63.1400 1453.0000 1.0000
63.1600 1423.0000 1.0000
63.1800 1477.0000 1.0000
63.2000 1459.0000 1.0000
63.2200 1482.0000 1.0000
63.2400 1469.0000 1.0000
63.2600 1444.0000 1.0000
63.2800 1431.0000 1.0000
63.3000 1460.0000 1.0000
63.3200 1505.0000 1.0000
63.3400 1424.0000 1.0000
63.3600 1392.0000 1.0000
63.3800 1422.0000 1.0000
63.4000 1477.0000 1.0000
63.4200 1439.0000 1.0000
63.4400 1415.0000 1.0000
63.4600 1470.0000 1.0000
63.4800 1463.0000 1.0000
63.5000 1409.0000 1.0000
63.5200 1427.0000 1.0000
63.5400 1481.0000 1.0000
63.5600 1400.0000 1.0000
63.5800 1417.0000 1.0000
63.6000 1324.0000 1.0000
63.6200 1449.0000 1.0000
63.6400 1437.0000 1.0000
63.6600 1465.0000 1.0000
63.6800 1411.0000 1.0000
63.7000 1402.0000 1.0000
63.7200 1382.0000 1.0000
63.7400 1433.0000 1.0000
63.7600 1445.0000 1.0000
63.7800 1352.0000 1.0000
63.8000 1447.0000 1.0000
63.8200 1367.0000 1.0000
63.8400 1431.0000 1.0000
63.8600 1404.0000 1.0000
63.8800 1399.0000 1.0000
63.9000 1394.0000 1.0000
63.9200 1416.0000 1.0000
63.9400 1473.0000 1.0000
63.9600 1428.0000 1.0000
63.9800 1391.0000 1.0000
64.0000 1478.0000 1.0000
64.0200 1392.0000 1.0000
64.0400 1399.0000 1.0000
64.0600 1396.0000 1.0000
64.0800 1416.0000 1.0000
64.1000 1426.0000 1.0000
64.1200 1420.0000 1.0000
64.1400 1362.0000 1.0000
64.1600 1438.0000 1.0000
64.1800 1476.0000 1.0000
64.2000 1378.0000 1.0000
64.2200 1412.0000 1.0000
64.2400 1400.0000 1.0000
64.2600 1448.0000 1.0000
64.2800 1426.0000 1.0000
64.3000 1387.0000 1.0000
64.3200 1476.0000 1.0000
64.3400 1442.0000 1.0000
64.3600 1400.0000 1.0000
64.3800 1414.0000 1.0000
64.4000 1418.0000 1.0000
64.4200 1416.0000 1.0000
64.4400 1476.0000 1.0000
64.4600 1482.0000 1.0000
64.4800 1416.0000 1.0000
64.5000 1506.0000 1.0000
64.5200 1450.0000 1.0000
64.5400 1402.0000 1.0000
64.5600 1426.0000 1.0000
64.5800 1394.0000 1.0000
64.6000 1415.0000 1.0000
64.6200 1401.0000 1.0000
64.6400 1510.0000 1.0000
64.6600 1430.0000 1.0000
64.6800 1435.0000 1.0000
64.7000 1450.0000 1.0000
64.7200 1448.0000 1.0000
64.7400 1429.0000 1.0000
64.7600 1449.0000 1.0000
64.7800 1470.0000 1.0000
64.8000 1480.0000 1.0000
64.8200 1480.0000 1.0000
64.8400 1406.0000 1.0000
64.8600 1475.0000 1.0000
64.8800 1527.0000 1.0000
64.9000 1538.0000 1.0000
64.9200 1481.0000 1.0000
64.9400 1395.0000 1.0000
64.9600 1459.0000 1.0000
64.9800 1519.0000 1.0000
65.0000 1470.0000 1.0000
65.0200 1484.0000 1.0000
65.0400 1501.0000 1.0000
65.0600 1428.0000 1.0000
65.0800 1437.0000 1.0000
65.1000 1559.0000 1.0000
65.1200 1628.0000 1.0000
65.1400 1457.0000 1.0000
65.1600 1490.0000 1.0000
65.1800 1425.0000 1.0000
65.2000 1544.0000 1.0000
65.2200 1514.0000 1.0000
65.2400 1426.0000 1.0000
65.2600 1498.0000 1.0000
65.2800 1520.0000 1.0000
65.3000 1529.0000 1.0000
65.3200 1490.0000 1.0000
65.3400 1499.0000 1.0000
65.3600 1472.0000 1.0000
65.3800 1522.0000 1.0000
65.4000 1542.0000 1.0000
65.4200 1523.0000 1.0000
65.4400 1494.0000 1.0000
65.4600 1548.0000 1.0000
65.4800 1529.0000 1.0000
65.5000 1588.0000 1.0000
65.5200 1620.0000 1.0000
65.5400 1572.0000 1.0000
65.5600 1552.0000 1.0000
65.5800 1628.0000 1.0000
65.6000 1626.0000 1.0000
65.6200 1591.0000 1.0000
65.6400 1643.0000 1.0000
65.6600 1617.0000 1.0000
65.6800 1583.0000 1.0000
65.7000 1667.0000 1.0000
65.7200 1661.0000 1.0000
65.7400 1634.0000 1.0000
65.7600 1631.0000 1.0000
65.7800 1650.0000 1.0000
65.8000 1681.0000 1.0000
65.8200 1695.0000 1.0000
65.8400 1689.0000 1.0000
65.8600 1696.0000 1.0000
65.8800 1667.0000 1.0000
65.9000 1769.0000 1.0000
65.9200 1700.0000 1.0000
65.9400 1713.0000 1.0000
65.9600 1742.0000 1.0000
65.9800 1778.0000 1.0000
66.0000 1736.0000 1.0000
66.0200 1759.0000 1.0000
66.0400 1767.0000 1.0000
66.0600 1771.0000 1.0000
66.0800 1797.0000 1.0000
66.1000 1831.0000 1.0000
66.1200 1760.0000 1.0000
66.1400 1843.0000 1.0000
66.1600 1804.0000 1.0000
66.1800 1886.0000 1.0000
66.2000 1837.0000 1.0000
66.2200 1927.0000 1.0000
66.2400 1867.0000 1.0000
66.2600 1891.0000 1.0000
66.2800 1977.0000 1.0000
66.3000 1959.0000 1.0000
66.3200 2016.0000 1.0000
66.3400 2051.0000 1.0000
66.3600 2108.0000 1.0000
66.3800 2067.0000 1.0000
66.4000 2108.0000 1.0000
66.4200 2123.0000 1.0000
66.4400 2158.0000 1.0000
66.4600 2175.0000 1.0000
66.4800 2224.0000 1.0000
66.5000 2223.0000 1.0000
66.5200 2277.0000 1.0000
66.5400 2311.0000 1.0000
66.5600 2263.0000 1.0000
66.5800 2406.0000 1.0000
66.6000 2353.0000 1.0000
66.6200 2450.0000 1.0000
66.6400 2444.0000 1.0000
66.6600 2500.0000 1.0000
66.6800 2574.0000 1.0000
66.7000 2479.0000 1.0000
66.7200 2566.0000 1.0000
66.7400 2632.0000 1.0000
66.7600 2620.0000 1.0000
66.7800 2732.0000 1.0000
66.8000 2735.0000 1.0000
66.8200 2692.0000 1.0000
66.8400 2763.0000 1.0000
66.8600 2838.0000 1.0000
66.8800 2889.0000 1.0000
66.9000 2888.0000 1.0000
66.9200 2927.0000 1.0000
66.9400 2932.0000 1.0000
66.9600 3043.0000 1.0000
66.9800 3000.0000 1.0000
67.0000 3010.0000 1.0000
67.0200 3044.0000 1.0000
67.0400 3093.0000 1.0000
67.0600 3000.0000 1.0000
67.0800 3036.0000 1.0000
67.1000 3064.0000 1.0000
67.1200 3113.0000 1.0000
67.1400 3112.0000 1.0000
67.1600 3150.0000 1.0000
67.1800 3120.0000 1.0000
67.2000 3117.0000 1.0000
67.2200 3077.0000 1.0000
67.2400 3121.0000 1.0000
67.2600 3011.0000 1.0000
67.2800 3134.0000 1.0000
67.3000 3015.0000 1.0000
67.3200 2989.0000 1.0000
67.3400 2911.0000 1.0000
67.3600 2956.0000 1.0000
67.3800 3015.0000 1.0000
67.4000 2928.0000 1.0000
67.4200 2909.0000 1.0000
67.4400 2968.0000 1.0000
67.4600 2948.0000 1.0000
67.4800 2838.0000 1.0000
67.5000 2781.0000 1.0000
67.5200 2830.0000 1.0000
67.5400 2722.0000 1.0000
67.5600 2747.0000 1.0000
67.5800 2729.0000 1.0000
67.6000 2637.0000 1.0000
67.6200 2671.0000 1.0000
67.6400 2577.0000 1.0000
67.6600 2568.0000 1.0000
67.6800 2567.0000 1.0000
67.7000 2572.0000 1.0000
67.7200 2521.0000 1.0000
67.7400 2556.0000 1.0000
67.7600 2491.0000 1.0000
67.7800 2489.0000 1.0000
67.8000 2448.0000 1.0000
67.8200 2422.0000 1.0000
67.8400 2467.0000 1.0000
67.8600 2390.0000 1.0000
67.8800 2358.0000 1.0000
67.9000 2279.0000 1.0000
67.9200 2353.0000 1.0000
67.9400 2309.0000 1.0000
67.9600 2329.0000 1.0000
67.9800 2347.0000 1.0000
68.0000 2263.0000 1.0000
68.0200 2361.0000 1.0000
68.0400 2262.0000 1.0000
68.0600 2208.0000 1.0000
68.0800 2268.0000 1.0000
68.1000 2129.0000 1.0000
68.1200 2171.0000 1.0000
68.1400 2162.0000 1.0000
68.1600 2113.0000 1.0000
68.1800 2244.0000 1.0000
68.2000 2150.0000 1.0000
68.2200 2145.0000 1.0000
68.2400 2075.0000 1.0000
68.2600 2239.0000 1.0000
68.2800 2247.0000 1.0000
68.3000 2067.0000 1.0000
68.3200 2076.0000 1.0000
68.3400 2020.0000 1.0000
68.3600 2077.0000 1.0000
68.3800 2146.0000 1.0000
68.4000 2158.0000 1.0000
68.4200 2133.0000 1.0000
68.4400 2061.0000 1.0000
68.4600 2037.0000 1.0000
68.4800 2097.0000 1.0000
68.5000 2090.0000 1.0000
68.5200 2120.0000 1.0000
68.5400 2010.0000 1.0000
68.5600 1998.0000 1.0000
68.5800 2022.0000 1.0000
68.6000 2022.0000 1.0000
68.6200 2021.0000 1.0000
68.6400 2055.0000 1.0000
68.6600 2042.0000 1.0000
68.6800 2053.0000 1.0000
68.7000 2071.0000 1.0000
68.7200 2047.0000 1.0000
68.7400 2098.0000 1.0000
68.7600 2122.0000 1.0000
68.7800 1982.0000 1.0000
68.8000 2046.0000 1.0000
68.8200 2071.0000 1.0000
68.8400 1983.0000 1.0000
68.8600 2036.0000 1.0000
68.8800 2118.0000 1.0000
68.9000 2132.0000 1.0000
68.9200 2094.0000 1.0000
68.9400 2007.0000 1.0000
68.9600 2066.0000 1.0000
68.9800 2071.0000 1.0000
69.0000 2053.0000 1.0000
69.0200 2220.0000 1.0000
69.0400 2105.0000 1.0000
69.0600 2122.0000 1.0000
69.0800 2113.0000 1.0000
69.1000 2145.0000 1.0000
69.1200 2195.0000 1.0000
69.1400 2153.0000 1.0000
69.1600 2207.0000 1.0000
69.1800 2225.0000 1.0000
69.2000 2276.0000 1.0000
69.2200 2296.0000 1.0000
69.2400 2289.0000 1.0000
69.2600 2187.0000 1.0000
69.2800 2204.0000 1.0000
69.3000 2307.0000 1.0000
69.3200 2312.0000 1.0000
69.3400 2297.0000 1.0000
69.3600 2222.0000 1.0000
69.3800 2271.0000 1.0000
69.4000 2354.0000 1.0000
69.4200 2338.0000 1.0000
69.4400 2283.0000 1.0000
69.4600 2297.0000 1.0000
69.4800 2340.0000 1.0000
69.5000 2372.0000 1.0000
69.5200 2355.0000 1.0000
69.5400 2426.0000 1.0000
69.5600 2436.0000 1.0000
69.5800 2360.0000 1.0000
69.6000 2329.0000 1.0000
69.6200 2366.0000 1.0000
69.6400 2278.0000 1.0000
69.6600 2400.0000 1.0000
69.6800 2429.0000 1.0000
69.7000 2460.0000 1.0000
69.7200 2462.0000 1.0000
69.7400 2450.0000 1.0000
69.7600 2383.0000 1.0000
69.7800 2375.0000 1.0000
69.8000 2377.0000 1.0000
69.8200 2407.0000 1.0000
69.8400 2382.0000 1.0000
69.8600 2325.0000 1.0000
69.8800 2456.0000 1.0000
69.9000 2418.0000 1.0000
69.9200 2401.0000 1.0000
69.9400 2287.0000 1.0000
69.9600 2247.0000 1.0000
69.9800 2413.0000 1.0000
70.0000 2289.0000 1.0000
70.0200 2220.0000 1.0000
70.0400 2305.0000 1.0000
70.0600 2314.0000 1.0000
70.0800 2380.0000 1.0000
70.1000 2298.0000 1.0000
70.1200 2312.0000 1.0000
70.1400 2325.0000 1.0000
70.1600 2386.0000 1.0000
70.1800 2335.0000 1.0000
70.2000 2332.0000 1.0000
70.2200 2285.0000 1.0000
70.2400 2283.0000 1.0000
70.2600 2337.0000 1.0000
70.2800 2368.0000 1.0000
70.3000 2272.0000 1.0000
70.3200 2339.0000 1.0000
70.3400 2305.0000 1.0000
70.3600 2292.0000 1.0000
70.3800 2397.0000 1.0000
70.4000 2405.0000 1.0000
70.4200 2378.0000 1.0000
70.4400 2437.0000 1.0000
70.4600 2412.0000 1.0000
70.4800 2410.0000 1.0000
70.5000 2324.0000 1.0000
70.5200 2521.0000 1.0000
70.5400 2406.0000 1.0000
70.5600 2501.0000 1.0000
70.5800 2424.0000 1.0000
70.6000 2474.0000 1.0000
70.6200 2498.0000 1.0000
70.6400 2546.0000 1.0000
70.6600 2561.0000 1.0000
70.6800 2618.0000 1.0000
70.7000 2609.0000 1.0000
70.7200 2737.0000 1.0000
70.7400 2730.0000 1.0000
70.7600 2630.0000 1.0000
70.7800 2744.0000 1.0000
70.8000 2582.0000 1.0000
70.8200 2705.0000 1.0000
70.8400 2775.0000 1.0000
70.8600 2740.0000 1.0000
70.8800 2797.0000 1.0000
70.9000 2781.0000 1.0000
70.9200 2771.0000 1.0000
70.9400 2849.0000 1.0000
70.9600 2750.0000 1.0000
70.9800 2880.0000 1.0000
71.0000 2921.0000 1.0000
71.0200 2891.0000 1.0000
71.0400 2905.0000 1.0000
71.0600 2958.0000 1.0000
71.0800 2971.0000 1.0000
71.1000 2881.0000 1.0000
71.1200 3052.0000 1.0000
71.1400 2986.0000 1.0000
71.1600 2964.0000 1.0000
71.1800 3052.0000 1.0000
71.2000 2926.0000 1.0000
71.2200 3045.0000 1.0000
71.2400 3079.0000 1.0000
71.2600 2987.0000 1.0000
71.2800 2977.0000 1.0000
71.3000 2994.0000 1.0000
71.3200 2964.0000 1.0000
71.3400 2966.0000 1.0000
71.3600 2916.0000 1.0000
71.3800 2947.0000 1.0000
71.4000 2884.0000 1.0000
71.4200 2954.0000 1.0000
71.4400 2862.0000 1.0000
71.4600 2900.0000 1.0000
71.4800 2865.0000 1.0000
71.5000 2854.0000 1.0000
71.5200 2915.0000 1.0000
71.5400 2787.0000 1.0000
71.5600 2919.0000 1.0000
71.5800 2833.0000 1.0000
71.6000 2723.0000 1.0000
71.6200 2741.0000 1.0000
71.6400 2898.0000 1.0000
71.6600 2755.0000 1.0000
71.6800 2740.0000 1.0000
71.7000 2680.0000 1.0000
71.7200 2645.0000 1.0000
71.7400 2683.0000 1.0000
71.7600 2601.0000 1.0000
71.7800 2595.0000 1.0000
71.8000 2581.0000 1.0000
71.8200 2605.0000 1.0000
71.8400 2617.0000 1.0000
71.8600 2630.0000 1.0000
71.8800 2577.0000 1.0000
71.9000 2566.0000 1.0000
71.9200 2547.0000 1.0000
71.9400 2562.0000 1.0000
71.9600 2640.0000 1.0000
71.9800 2591.0000 1.0000
72.0000 2575.0000 1.0000
72.0200 2479.0000 1.0000
72.0400 2533.0000 1.0000
72.0600 2588.0000 1.0000
72.0800 2538.0000 1.0000
72.1000 2471.0000 1.0000
72.1200 2468.0000 1.0000
72.1400 2514.0000 1.0000
72.1600 2522.0000 1.0000
72.1800 2569.0000 1.0000
72.2000 2502.0000 1.0000
72.2200 2565.0000 1.0000
72.2400 2493.0000 1.0000
72.2600 2507.0000 1.0000
72.2800 2460.0000 1.0000
72.3000 2503.0000 1.0000
72.3200 2519.0000 1.0000
72.3400 2549.0000 1.0000
72.3600 2522.0000 1.0000
72.3800 2547.0000 1.0000
72.4000 2565.0000 1.0000
72.4200 2543.0000 1.0000
72.4400 2589.0000 1.0000
72.4600 2500.0000 1.0000
72.4800 2521.0000 1.0000
72.5000 2510.0000 1.0000
72.5200 2536.0000 1.0000
72.5400 2601.0000 1.0000
72.5600 2500.0000 1.0000
72.5800 2597.0000 1.0000
72.6000 2672.0000 1.0000
72.6200 2520.0000 1.0000
72.6400 2618.0000 1.0000
72.6600 2586.0000 1.0000
72.6800 2620.0000 1.0000
72.7000 2635.0000 1.0000
72.7200 2651.0000 1.0000
72.7400 2540.0000 1.0000
72.7600 2526.0000 1.0000
72.7800 2599.0000 1.0000
72.8000 2568.0000 1.0000
72.8200 2481.0000 1.0000
72.8400 2562.0000 1.0000
72.8600 2544.0000 1.0000
72.8800 2459.0000 1.0000
72.9000 2574.0000 1.0000
72.9200 2497.0000 1.0000
72.9400 2528.0000 1.0000
72.9600 2471.0000 1.0000
72.9800 2490.0000 1.0000
73.0000 2483.0000 1.0000
73.0200 2450.0000 1.0000
73.0400 2473.0000 1.0000
73.0600 2392.0000 1.0000
73.0800 2374.0000 1.0000
73.1000 2326.0000 1.0000
73.1200 2392.0000 1.0000
73.1400 2331.0000 1.0000
73.1600 2352.0000 1.0000
73.1800 2288.0000 1.0000
73.2000 2390.0000 1.0000
73.2200 2285.0000 1.0000
73.2400 2242.0000 1.0000
73.2600 2256.0000 1.0000
73.2800 2297.0000 1.0000
73.3000 2183.0000 1.0000
73.3200 2245.0000 1.0000
73.3400 2232.0000 1.0000
73.3600 2154.0000 1.0000
73.3800 2175.0000 1.0000
73.4000 2293.0000 1.0000
73.4200 2188.0000 1.0000
73.4400 2193.0000 1.0000
73.4600 2113.0000 1.0000
73.4800 2173.0000 1.0000
73.5000 2200.0000 1.0000
73.5200 2143.0000 1.0000
73.5400 2125.0000 1.0000
73.5600 2145.0000 1.0000
73.5800 2151.0000 1.0000
73.6000 2201.0000 1.0000
73.6200 2114.0000 1.0000
73.6400 2042.0000 1.0000
73.6600 2051.0000 1.0000
73.6800 2062.0000 1.0000
73.7000 2121.0000 1.0000
73.7200 2090.0000 1.0000
73.7400 2021.0000 1.0000
73.7600 2121.0000 1.0000
73.7800 2038.0000 1.0000
73.8000 2030.0000 1.0000
73.8200 2041.0000 1.0000
73.8400 2082.0000 1.0000
73.8600 2103.0000 1.0000
73.8800 2064.0000 1.0000
73.9000 2005.0000 1.0000
73.9200 1986.0000 1.0000
73.9400 1991.0000 1.0000
73.9600 2051.0000 1.0000
73.9800 1973.0000 1.0000
74.0000 2068.0000 1.0000
74.0200 1972.0000 1.0000
74.0400 2035.0000 1.0000
74.0600 1964.0000 1.0000
74.0800 2057.0000 1.0000
74.1000 1938.0000 1.0000
74.1200 1917.0000 1.0000
74.1400 1984.0000 1.0000
74.1600 2017.0000 1.0000
74.1800 1983.0000 1.0000
74.2000 1992.0000 1.0000
74.2200 1991.0000 1.0000
74.2400 1961.0000 1.0000
74.2600 1974.0000 1.0000
74.2800 2019.0000 1.0000
74.3000 1945.0000 1.0000
74.3200 1930.0000 1.0000
74.3400 1977.0000 1.0000
74.3600 2015.0000 1.0000
74.3800 2051.0000 1.0000
74.4000 2042.0000 1.0000
74.4200 1987.0000 1.0000
74.4400 2024.0000 1.0000
74.4600 1999.0000 1.0000
74.4800 1969.0000 1.0000
74.5000 1932.0000 1.0000
74.5200 2065.0000 1.0000
74.5400 2060.0000 1.0000
74.5600 1980.0000 1.0000
74.5800 2019.0000 1.0000
74.6000 1963.0000 1.0000
74.6200 2063.0000 1.0000
74.6400 1982.0000 1.0000
74.6600 1951.0000 1.0000
74.6800 1994.0000 1.0000
74.7000 2073.0000 1.0000
74.7200 1981.0000 1.0000
74.7400 2050.0000 1.0000
74.7600 2020.0000 1.0000
74.7800 2046.0000 1.0000
74.8000 2032.0000 1.0000
74.8200 2151.0000 1.0000
74.8400 2094.0000 1.0000
74.8600 2158.0000 1.0000
74.8800 2084.0000 1.0000
74.9000 2141.0000 1.0000
74.9200 2186.0000 1.0000
74.9400 2142.0000 1.0000
74.9600 2094.0000 1.0000
74.9800 2189.0000 1.0000
75.0000 2093.0000 1.0000
75.0200 2235.0000 1.0000
75.0400 2197.0000 1.0000
75.0600 2202.0000 1.0000
75.0800 2245.0000 1.0000
75.1000 2152.0000 1.0000
75.1200 2218.0000 1.0000
75.1400 2358.0000 1.0000
75.1600 2358.0000 1.0000
75.1800 2305.0000 1.0000
75.2000 2376.0000 1.0000
75.2200 2378.0000 1.0000
75.2400 2297.0000 1.0000
75.2600 2321.0000 1.0000
75.2800 2433.0000 1.0000
75.3000 2403.0000 1.0000
75.3200 2390.0000 1.0000
75.3400 2466.0000 1.0000
75.3600 2504.0000 1.0000
75.3800 2520.0000 1.0000
75.4000 2535.0000 1.0000
75.4200 2634.0000 1.0000
75.4400 2710.0000 1.0000
75.4600 2711.0000 1.0000
75.4800 2574.0000 1.0000
75.5000 2775.0000 1.0000
75.5200 2708.0000 1.0000
75.5400 2715.0000 1.0000
75.5600 2856.0000 1.0000
75.5800 2850.0000 1.0000
75.6000 2825.0000 1.0000
75.6200 2902.0000 1.0000
75.6400 2893.0000 1.0000
75.6600 3022.0000 1.0000
75.6800 2971.0000 1.0000
75.7000 2952.0000 1.0000
75.7200 3138.0000 1.0000
75.7400 3026.0000 1.0000
75.7600 3038.0000 1.0000
75.7800 3146.0000 1.0000
75.8000 3067.0000 1.0000
75.8200 3135.0000 1.0000
75.8400 3151.0000 1.0000
75.8600 3109.0000 1.0000
75.8800 3276.0000 1.0000
75.9000 3239.0000 1.0000
75.9200 3159.0000 1.0000
75.9400 3247.0000 1.0000
75.9600 3195.0000 1.0000
75.9800 3262.0000 1.0000
76.0000 3134.0000 1.0000
76.0200 3182.0000 1.0000
76.0400 3139.0000 1.0000
76.0600 3104.0000 1.0000
76.0800 3094.0000 1.0000
76.1000 3103.0000 1.0000
76.1200 3137.0000 1.0000
76.1400 2969.0000 1.0000
76.1600 3011.0000 1.0000
76.1800 3030.0000 1.0000
76.2000 3032.0000 1.0000
76.2200 2972.0000 1.0000
76.2400 2861.0000 1.0000
76.2600 2870.0000 1.0000
76.2800 2867.0000 1.0000
76.3000 2886.0000 1.0000
76.3200 2977.0000 1.0000
76.3400 2817.0000 1.0000
76.3600 2671.0000 1.0000
76.3800 2833.0000 1.0000
76.4000 2717.0000 1.0000
76.4200 2806.0000 1.0000
76.4400 2653.0000 1.0000
76.4600 2671.0000 1.0000
76.4800 2694.0000 1.0000
76.5000 2642.0000 1.0000
76.5200 2693.0000 1.0000
76.5400 2552.0000 1.0000
76.5600 2666.0000 1.0000
76.5800 2633.0000 1.0000
76.6000 2492.0000 1.0000
76.6200 2501.0000 1.0000
76.6400 2479.0000 1.0000
76.6600 2488.0000 1.0000
76.6800 2449.0000 1.0000
76.7000 2517.0000 1.0000
76.7200 2467.0000 1.0000
76.7400 2431.0000 1.0000
76.7600 2403.0000 1.0000
76.7800 2354.0000 1.0000
76.8000 2327.0000 1.0000
76.8200 2288.0000 1.0000
76.8400 2310.0000 1.0000
76.8600 2264.0000 1.0000
76.8800 2374.0000 1.0000
76.9000 2251.0000 1.0000
76.9200 2364.0000 1.0000
76.9400 2338.0000 1.0000
76.9600 2353.0000 1.0000
76.9800 2277.0000 1.0000
77.0000 2237.0000 1.0000
77.0200 2189.0000 1.0000
77.0400 2230.0000 1.0000
77.0600 2151.0000 1.0000
77.0800 2262.0000 1.0000
77.1000 2180.0000 1.0000
77.1200 2190.0000 1.0000
77.1400 2206.0000 1.0000
77.1600 2204.0000 1.0000
77.1800 2134.0000 1.0000
77.2000 2131.0000 1.0000
77.2200 2046.0000 1.0000
77.2400 2132.0000 1.0000
77.2600 2205.0000 1.0000
77.2800 2054.0000 1.0000
77.3000 2043.0000 1.0000
77.3200 2079.0000 1.0000
77.3400 2036.0000 1.0000
77.3600 2047.0000 1.0000
77.3800 2029.0000 1.0000
77.4000 2056.0000 1.0000
77.4200 1984.0000 1.0000
77.4400 1966.0000 1.0000
77.4600 1909.0000 1.0000
77.4800 1984.0000 1.0000
77.5000 1931.0000 1.0000
77.5200 2032.0000 1.0000
77.5400 2002.0000 1.0000
77.5600 2066.0000 1.0000
77.5800 1997.0000 1.0000
77.6000 1958.0000 1.0000
77.6200 1891.0000 1.0000
77.6400 2027.0000 1.0000
77.6600 1951.0000 1.0000
77.6800 1945.0000 1.0000
77.7000 1897.0000 1.0000
77.7200 2010.0000 1.0000
77.7400 1999.0000 1.0000
77.7600 1860.0000 1.0000
77.7800 1923.0000 1.0000
77.8000 2025.0000 1.0000
77.8200 1936.0000 1.0000
77.8400 1948.0000 1.0000
77.8600 1933.0000 1.0000
77.8800 1931.0000 1.0000
77.9000 1907.0000 1.0000
77.9200 1833.0000 1.0000
77.9400 1912.0000 1.0000
77.9600 1843.0000 1.0000
77.9800 1876.0000 1.0000
78.0000 1828.0000 1.0000
78.0200 1925.0000 1.0000
78.0400 1869.0000 1.0000
78.0600 1818.0000 1.0000
78.0800 1897.0000 1.0000
78.1000 1837.0000 1.0000
78.1200 1835.0000 1.0000
78.1400 1821.0000 1.0000
78.1600 1866.0000 1.0000
78.1800 1833.0000 1.0000
78.2000 1796.0000 1.0000
78.2200 1811.0000 1.0000
78.2400 1835.0000 1.0000
78.2600 1846.0000 1.0000
78.2800 1807.0000 1.0000
78.3000 1832.0000 1.0000
78.3200 1822.0000 1.0000
78.3400 1784.0000 1.0000
78.3600 1766.0000 1.0000
78.3800 1704.0000 1.0000
78.4000 1789.0000 1.0000
78.4200 1839.0000 1.0000
78.4400 1807.0000 1.0000
78.4600 1754.0000 1.0000
78.4800 1794.0000 1.0000
78.5000 1726.0000 1.0000
78.5200 1797.0000 1.0000
78.5400 1797.0000 1.0000
78.5600 1739.0000 1.0000
78.5800 1785.0000 1.0000
78.6000 1719.0000 1.0000
78.6200 1773.0000 1.0000
78.6400 1739.0000 1.0000
78.6600 1668.0000 1.0000
78.6800 1792.0000 1.0000
78.7000 1740.0000 1.0000
78.7200 1720.0000 1.0000
78.7400 1776.0000 1.0000
78.7600 1764.0000 1.0000
78.7800 1762.0000 1.0000
78.8000 1729.0000 1.0000
78.8200 1711.0000 1.0000
78.8400 1791.0000 1.0000
78.8600 1762.0000 1.0000
78.8800 1719.0000 1.0000
78.9000 1758.0000 1.0000
78.9200 1760.0000 1.0000
78.9400 1753.0000 1.0000
78.9600 1739.0000 1.0000
78.9800 1697.0000 1.0000
79.0000 1761.0000 1.0000
79.0200 1772.0000 1.0000
79.0400 1788.0000 1.0000
79.0600 1682.0000 1.0000
79.0800 1785.0000 1.0000
79.1000 1746.0000 1.0000
79.1200 1706.0000 1.0000
79.1400 1724.0000 1.0000
79.1600 1741.0000 1.0000
79.1800 1714.0000 1.0000
79.2000 1723.0000 1.0000
79.2200 1729.0000 1.0000
79.2400 1675.0000 1.0000
79.2600 1740.0000 1.0000
79.2800 1683.0000 1.0000
79.3000 1749.0000 1.0000
79.3200 1762.0000 1.0000
79.3400 1690.0000 1.0000
79.3600 1685.0000 1.0000
79.3800 1713.0000 1.0000
79.4000 1732.0000 1.0000
79.4200 1725.0000 1.0000
79.4400 1767.0000 1.0000
79.4600 1717.0000 1.0000
79.4800 1737.0000 1.0000
79.5000 1829.0000 1.0000
79.5200 1727.0000 1.0000
79.5400 1731.0000 1.0000
79.5600 1767.0000 1.0000
79.5800 1802.0000 1.0000
79.6000 1753.0000 1.0000
79.6200 1804.0000 1.0000
79.6400 1691.0000 1.0000
79.6600 1764.0000 1.0000
79.6800 1756.0000 1.0000
79.7000 1866.0000 1.0000
79.7200 1877.0000 1.0000
79.7400 1837.0000 1.0000
79.7600 1808.0000 1.0000
79.7800 1823.0000 1.0000
79.8000 1795.0000 1.0000
79.8200 1850.0000 1.0000
79.8400 1848.0000 1.0000
79.8600 1882.0000 1.0000
79.8800 1854.0000 1.0000
79.9000 1791.0000 1.0000
79.9200 1842.0000 1.0000
79.9400 1821.0000 1.0000
79.9600 1882.0000 1.0000
79.9800 1875.0000 1.0000
80.0000 1935.0000 1.0000
*RAS_INT_END
*RAS_DATA_END
