*TYPE		=  Raw
*CLASS		=  ASCII CLASS
*SAMPLE		=   
*COMMENT	=   
*FNAME		=  CdS-1_Theta_2-Theta.asc
*DATE		=  01-Jun-26 15:09

*GROUP_COUNT	=  1
*GONIO		=  SmartLab, 0.000000
*ATTACHMENT	=  Standard Z stage
*ASC		=  0, 0, 0.000000, 0.000000
*I_MONOCHRO	=  Soller_slit_5.0deg, 0.000000
*FILTER		=  Cu_K-beta
*C_MONOCHRO	=  None, 0.000000
*SLIT_NAME	=  0, Incident slit
*SLIT_NAME	=  1, Receiving slit # 1
*SLIT_NAME	=  2, Receiving slit # 2
*COUNTER	=  D/teX Ultra, 0
*POS_FORMAT	=  0
*SCAN_AXIS	=  2theta/theta
*MEAS_MODE	=  Continuous Scanning
*TARGET		=  29
*XRAY_CHAR	=  K-ALPHA
*WAVE_LENGTH1	=  1.54059
*WAVE_LENGTH2	=  1.54441
*THICKNESS	=  0, 0.000000
*MU		=  0, 0.000000
*SCAN_MODE	=  2theta/theta
*SPEED_DIM	=  sec./step
*XUNIT		=  deg.
*YUNIT		=  counts
*SCALE_MODE	=  1
*REP_COUNT	=  0
*SE_COUNT	=  0
*STD_MATERIAL	=  Unknown, Unknown, 0.000000, 0.000000, 0.000000, 0.000000, 0.000000, 0.000000
*LATT_CONS	=  0, Unknown, Unknown, 0.000000, 0.000000, 0.000000, 0.000000, 0.000000, 0.000000
*SEC_COUNT	=  1
*TSPEC_SIZE	=  0
*EXTRA_SIZE	=  0
*MEMO		=   

*BEGIN
*GROUP		=  0
*START		=  10
*STOP		=  80
*STEP		=  0.02
*OFFSET		=  0.000000
*SPEED		=  0.12
*SLIT_SPEC	=  0, 2/3deg, 2, 0.000000
*SLIT_SPEC	=  1, 20.000mm, 20, 0.000000
*SLIT_SPEC	=  2, 20.000mm, 20, 0.000000
*KV		=  40
*MA		=  150
*LOW		=  0.000000
*HIGH		=  0.000000
*CTEMPER	=  0, 0.000000
*CTEMPER	=  1, 0.000000
*CTEMPER	=  2, 0.000000
*PAREX		=  0, 0.000000
*PAREX		=  1, 0.000000
*PAREX		=  2, 0.000000
*PAREX		=  3, 0.000000
*PAREX		=  4, 0.000000
*PAREX		=  5, 0.000000
*PAREX		=  6, 0.000000
*PAREX		=  7, 0.000000
*PAREX		=  8, 0.000000
*PAREX		=  9, 0.000000
*PAREX		=  10, 0.000000
*PAREX		=  11, 0.000000
*PAREX		=  12, 0.000000
*PAREX		=  13, 0.000000
*PAREX		=  14, 0.000000
*PAREX		=  15, 0.000000
*FULL_SCALE	=  345820
*INDEX		=  0, 0, 0
*COUNT		=  3501
6207, 6327, 6230, 6167
6043, 6173, 6053, 6157
6260, 6074, 6115, 5944
6060, 6127, 6017, 5996
6053, 5923, 5972, 6049
6093, 5925, 5967, 6061
6018, 5978, 5993, 5878
5953, 5933, 6012, 5919
5785, 5907, 5896, 5869
5775, 5835, 5901, 5699
5759, 5822, 5748, 5745
5632, 5620, 5751, 5832
5722, 5609, 5769, 5691
5555, 5707, 5728, 5703
5659, 5687, 5827, 5621
5693, 5624, 5591, 5599
5525, 5474, 5554, 5526
5627, 5473, 5569, 5464
5518, 5477, 5599, 5519
5393, 5531, 5547, 5511
5422, 5394, 5466, 5338
5379, 5427, 5374, 5304
5359, 5353, 5343, 5379
5298, 5258, 5373, 5347
5343, 5383, 5225, 5288
5299, 5204, 5391, 5128
5235, 5239, 5226, 5244
5290, 5163, 5099, 5289
5245, 5150, 5059, 5146
5030, 5093, 5142, 5236
5114, 5089, 4989, 4959
4890, 5229, 5216, 4986
5173, 5079, 5075, 5036
5130, 5048, 5107, 5011
4930, 5078, 5033, 5211
5047, 4993, 4882, 4948
4929, 4982, 4946, 4970
4945, 4971, 4931, 4944
4852, 4965, 4847, 4983
4786, 4786, 4855, 4900
4906, 4870, 4851, 4923
4829, 4967, 4871, 4898
4779, 4847, 4914, 4847
4826, 4915, 4816, 4914
4854, 4815, 4708, 4709
4766, 4754, 4775, 4706
4795, 4672, 4722, 4816
4730, 4694, 4778, 4765
4679, 4664, 4652, 4725
4742, 4672, 4634, 4575
4572, 4570, 4563, 4595
4518, 4660, 4524, 4735
4608, 4512, 4496, 4552
4585, 4502, 4605, 4554
4459, 4555, 4625, 4463
4698, 4432, 4509, 4547
4546, 4469, 4473, 4545
4649, 4524, 4442, 4559
4561, 4565, 4540, 4465
4445, 4540, 4410, 4438
4590, 4324, 4422, 4414
4484, 4404, 4452, 4454
4491, 4280, 4414, 4392
4459, 4394, 4362, 4372
4331, 4368, 4312, 4374
4323, 4376, 4318, 4375
4374, 4255, 4301, 4547
4323, 4243, 4337, 4312
4219, 4387, 4330, 4251
4352, 4342, 4242, 4284
4278, 4230, 4129, 4288
4215, 4247, 4177, 4265
4241, 4183, 4120, 4189
4122, 4175, 4192, 4175
4163, 4027, 4200, 4041
4110, 4202, 4118, 4059
4157, 4039, 4205, 4095
4078, 4063, 4037, 4015
3997, 4013, 4008, 4020
4046, 3988, 4016, 3989
4157, 4048, 4014, 4058
4046, 4064, 4027, 4034
3991, 4010, 3967, 3825
3883, 3782, 3890, 3866
3912, 3928, 3881, 3922
3989, 3862, 3837, 3834
3757, 3838, 3827, 3889
3781, 3779, 3928, 3812
3900, 3848, 3810, 3689
3651, 3861, 3799, 3799
3810, 3840, 3830, 3753
3712, 3724, 3649, 3824
3860, 3731, 3725, 3759
3735, 3659, 3728, 3683
3708, 3691, 3758, 3687
3656, 3585, 3675, 3613
3724, 3600, 3655, 3610
3556, 3657, 3598, 3617
3637, 3683, 3523, 3624
3667, 3620, 3552, 3556
3515, 3625, 3582, 3579
3566, 3557, 3583, 3588
3572, 3593, 3571, 3493
3593, 3520, 3614, 3541
3538, 3550, 3525, 3497
3505, 3452, 3363, 3417
3511, 3478, 3445, 3451
3369, 3440, 3446, 3457
3536, 3403, 3436, 3473
3393, 3356, 3420, 3491
3445, 3324, 3490, 3449
3330, 3409, 3403, 3415
3362, 3336, 3330, 3459
3352, 3329, 3295, 3359
3416, 3371, 3425, 3457
3290, 3358, 3409, 3504
3463, 3376, 3399, 3298
3343, 3300, 3395, 3424
3230, 3326, 3359, 3339
3267, 3322, 3325, 3293
3303, 3223, 3219, 3269
3199, 3311, 3250, 3315
3296, 3306, 3218, 3273
3338, 3290, 3245, 3205
3260, 3272, 3205, 3153
3255, 3257, 3181, 3213
3274, 3239, 3212, 3254
3227, 3202, 3220, 3277
3225, 3173, 3180, 3210
3104, 3249, 3140, 3190
3099, 3170, 3173, 3140
3112, 3131, 3208, 3170
3175, 3115, 3171, 3217
3027, 3137, 3206, 3104
3188, 3114, 3167, 3084
3085, 3130, 3114, 3244
3166, 3070, 3186, 3182
3121, 3099, 3073, 3155
3168, 3086, 3064, 3138
3135, 3064, 3140, 3133
3143, 3103, 3110, 2965
3052, 3134, 3109, 3119
3113, 3103, 3054, 3131
3022, 3065, 3044, 3019
3083, 3002, 3057, 3077
3065, 3040, 2950, 3006
3085, 3070, 3017, 2990
2970, 3035, 3057, 3091
3097, 3076, 3027, 2946
3002, 3074, 3083, 2996
2987, 2969, 3079, 2994
3056, 2996, 2952, 3058
3017, 3036, 3028, 2985
3021, 3053, 3027, 3150
3027, 3067, 3140, 3078
3067, 3141, 3131, 3048
3020, 3064, 3064, 3188
3123, 3084, 3063, 3182
3143, 3188, 3142, 3060
3106, 3137, 3127, 3096
3042, 2993, 3093, 3061
3073, 3032, 3177, 3138
3133, 3224, 3349, 3340
3453, 3435, 3435, 3467
3457, 3256, 3229, 3177
3133, 3052, 3001, 3090
3051, 3136, 3148, 3029
3016, 3116, 2966, 2944
3104, 3158, 3182, 3039
3091, 3004, 3153, 3191
3174, 3074, 3078, 3235
3292, 3294, 3294, 3248
3286, 3295, 3278, 3355
3321, 3437, 3400, 3461
3569, 3576, 3590, 3649
3744, 3871, 3777, 3829
3953, 3942, 3921, 4112
4134, 4078, 4152, 4273
4315, 4478, 4561, 4634
4830, 4913, 5127, 5347
5426, 5627, 5776, 6179
6408, 6715, 7045, 7398
7970, 8401, 8819, 9327
10003, 10535, 11387, 12154
12769, 13745, 14479, 15539
16355, 17346, 18255, 19305
19714, 20135, 20698, 20778
21160, 21105, 20985, 20478
20155, 19491, 19049, 18296
17746, 17207, 16362, 15972
15302, 14830, 13953, 13702
13262, 12562, 12318, 11981
11738, 11392, 11034, 10726
10399, 9986, 9873, 9729
9509, 9172, 9011, 8998
8689, 8541, 8503, 8394
7989, 8055, 7979, 8053
7708, 7718, 7755, 7655
7519, 7532, 7462, 7556
7533, 7402, 7309, 7104
7205, 7097, 7171, 7326
7288, 7305, 7289, 7293
7469, 7648, 7739, 7940
8049, 8188, 8570, 8652
9334, 9694, 10131, 11022
11751, 12881, 13778, 15180
16608, 18374, 20500, 22711
24709, 26983, 28818, 30451
31050, 30609, 29892, 28486
26455, 24697, 22933, 21203
19556, 18283, 17309, 16426
15237, 14591, 14224, 13541
13360, 12698, 12453, 11999
11712, 11529, 11300, 11060
10889, 10622, 10496, 10384
10209, 10175, 9951, 9880
9946, 9956, 9823, 9904
9824, 9652, 9639, 9697
9726, 9729, 9804, 9995
9862, 9971, 9931, 10091
10183, 10268, 10533, 10748
11053, 10980, 11243, 11475
11746, 12208, 12305, 12453
12948, 13432, 13821, 14567
15144, 15651, 16485, 17380
18341, 19393, 19987, 21383
22765, 23788, 25377, 26520
27781, 29194, 30450, 31574
32613, 33512, 33919, 34535
34582, 34255, 34185, 33351
32876, 31702, 30745, 29961
28608, 27807, 26619, 25234
24220, 23186, 21985, 20911
19873, 18808, 18200, 17191
16510, 15895, 14928, 14576
13899, 13476, 12921, 12548
12156, 11720, 11387, 10782
10673, 10319, 9888, 9667
9422, 9238, 8837, 8631
8484, 8228, 7927, 7893
7801, 7499, 7316, 7164
7048, 6954, 6728, 6636
6362, 6450, 6209, 6160
6151, 6021, 5908, 5578
5623, 5487, 5717, 5401
5324, 5232, 5002, 5054
5144, 4878, 4936, 4680
4948, 4809, 4864, 4747
4821, 4608, 4495, 4432
4468, 4406, 4429, 4433
4151, 4354, 4153, 4143
4146, 4047, 4036, 4074
4046, 3900, 4014, 3978
3962, 3906, 3850, 3733
3773, 3715, 3617, 3694
3768, 3571, 3525, 3597
3547, 3492, 3575, 3441
3411, 3447, 3360, 3439
3391, 3323, 3340, 3328
3311, 3213, 3251, 3278
3122, 3235, 3086, 3146
3143, 3061, 3042, 3126
3060, 2993, 2981, 3055
3033, 2991, 2868, 2960
2951, 2980, 2880, 2871
2897, 2912, 2915, 2842
2834, 2770, 2897, 2986
2904, 2892, 2885, 2821
2839, 2770, 2761, 2873
2749, 2773, 2763, 2759
2740, 2710, 2736, 2752
2742, 2555, 2668, 2661
2645, 2633, 2676, 2650
2553, 2623, 2644, 2595
2590, 2607, 2566, 2516
2524, 2544, 2618, 2489
2470, 2592, 2590, 2530
2497, 2486, 2589, 2548
2497, 2490, 2521, 2535
2454, 2450, 2585, 2525
2444, 2496, 2495, 2506
2544, 2494, 2379, 2478
2403, 2517, 2493, 2450
2382, 2473, 2460, 2338
2408, 2389, 2327, 2402
2442, 2434, 2404, 2337
2411, 2429, 2435, 2469
2510, 2335, 2373, 2428
2349, 2386, 2426, 2372
2368, 2410, 2397, 2353
2309, 2350, 2379, 2387
2324, 2381, 2330, 2309
2369, 2331, 2344, 2331
2415, 2359, 2341, 2294
2322, 2330, 2379, 2333
2290, 2344, 2373, 2233
2297, 2267, 2219, 2319
2307, 2225, 2200, 2243
2170, 2249, 2238, 2227
2235, 2206, 2261, 2296
2274, 2367, 2242, 2182
2318, 2300, 2245, 2230
2287, 2211, 2218, 2286
2227, 2236, 2355, 2361
2340, 2230, 2403, 2272
2180, 2190, 2228, 2269
2321, 2230, 2261, 2244
2188, 2221, 2228, 2323
2263, 2250, 2269, 2278
2290, 2256, 2290, 2356
2270, 2258, 2353, 2351
2256, 2352, 2377, 2334
2268, 2340, 2268, 2220
2364, 2360, 2300, 2339
2275, 2372, 2309, 2278
2361, 2310, 2382, 2356
2389, 2378, 2411, 2432
2357, 2450, 2500, 2398
2342, 2455, 2472, 2425
2404, 2394, 2469, 2489
2510, 2538, 2667, 2674
2625, 2614, 2642, 2592
2737, 2645, 2655, 2747
2856, 2775, 2860, 2810
2778, 2871, 2915, 2936
3007, 2980, 3039, 3092
3109, 3126, 3180, 3383
3363, 3309, 3392, 3496
3529, 3637, 3633, 3821
3884, 3989, 4013, 4016
4117, 4281, 4411, 4453
4622, 4777, 4837, 5039
5046, 5272, 5366, 5462
5579, 5698, 5808, 5913
6007, 6003, 6137, 6176
6118, 6245, 6097, 6105
6142, 5993, 6016, 5831
5876, 5714, 5554, 5626
5389, 5295, 5349, 5116
5137, 4923, 4751, 4611
4629, 4516, 4414, 4366
4337, 4169, 4164, 3998
4100, 3981, 3948, 3725
3613, 3690, 3605, 3620
3516, 3388, 3496, 3315
3358, 3289, 3291, 3233
3179, 3092, 3103, 3110
2995, 3069, 3006, 2980
2951, 2830, 2899, 2956
2840, 2810, 2776, 2811
2738, 2725, 2808, 2702
2739, 2729, 2527, 2731
2622, 2504, 2618, 2543
2535, 2508, 2560, 2502
2517, 2508, 2475, 2495
2492, 2383, 2510, 2546
2455, 2369, 2340, 2440
2413, 2351, 2352, 2360
2379, 2293, 2304, 2365
2347, 2406, 2393, 2350
2307, 2365, 2335, 2305
2243, 2211, 2249, 2252
2290, 2258, 2292, 2290
2226, 2260, 2311, 2238
2363, 2254, 2193, 2178
2287, 2209, 2316, 2330
2238, 2315, 2243, 2208
2287, 2251, 2284, 2230
2302, 2263, 2257, 2320
2245, 2202, 2183, 2224
2163, 2152, 2126, 2121
2177, 2222, 2196, 2155
2228, 2161, 2064, 2159
2149, 2108, 2034, 2139
2095, 2188, 2110, 2160
2062, 2111, 2151, 2024
2062, 2109, 2139, 2122
2094, 2113, 2092, 2147
2057, 2023, 2046, 2014
2097, 2096, 2079, 2126
2063, 2074, 2062, 2075
2046, 2095, 2080, 2065
2119, 2059, 2066, 2103
2056, 2101, 2106, 2065
2138, 2139, 2076, 2071
2028, 2073, 2061, 2062
2001, 2053, 2047, 2009
2088, 2035, 2086, 2083
2058, 2145, 2045, 2114
2024, 2131, 2087, 2103
2094, 2067, 2039, 2028
2057, 2041, 2011, 2101
2130, 2035, 2109, 2116
2097, 2138, 2124, 2132
2175, 2119, 2129, 2182
2147, 2166, 2186, 2043
2070, 2131, 2156, 2125
2127, 2169, 2220, 2278
2157, 2144, 2160, 2198
2254, 2131, 2178, 2172
2244, 2232, 2274, 2243
2217, 2246, 2366, 2210
2333, 2332, 2307, 2284
2326, 2358, 2333, 2302
2323, 2280, 2383, 2405
2329, 2336, 2466, 2433
2461, 2486, 2463, 2509
2561, 2566, 2624, 2533
2703, 2723, 2686, 2676
2665, 2804, 2862, 2818
2815, 2847, 2927, 2956
2917, 2923, 2906, 3047
3137, 3131, 3181, 3257
3332, 3409, 3479, 3508
3525, 3626, 3747, 3942
3959, 4054, 4145, 4345
4383, 4459, 4725, 4789
4979, 5311, 5362, 5724
5885, 6118, 6486, 6761
6957, 7434, 7572, 8107
8133, 8726, 9097, 9471
9897, 10232, 10676, 11168
11149, 11609, 12164, 12242
12200, 12622, 12787, 12844
12836, 12642, 12674, 12658
12262, 12158, 11984, 11518
11142, 11094, 10811, 10525
10097, 9865, 9761, 9343
9057, 8818, 8597, 8485
8186, 7999, 7914, 7578
7359, 7200, 6999, 6914
6792, 6684, 6553, 6493
6181, 6143, 6081, 6048
5926, 5877, 5760, 5771
5508, 5302, 5387, 5181
5241, 5091, 5048, 5035
4970, 4854, 4718, 4767
4806, 4758, 4639, 4653
4515, 4436, 4477, 4401
4375, 4331, 4303, 4214
4259, 4261, 4232, 4155
4139, 4129, 4090, 3999
3955, 4034, 4025, 3941
4036, 3869, 3928, 3889
3933, 3926, 3814, 3824
3804, 3920, 3681, 3762
3712, 3763, 3760, 3655
3694, 3766, 3752, 3680
3752, 3631, 3597, 3699
3678, 3598, 3678, 3671
3712, 3631, 3606, 3664
3561, 3586, 3598, 3551
3593, 3615, 3672, 3598
3548, 3632, 3621, 3557
3709, 3628, 3602, 3595
3691, 3666, 3551, 3687
3756, 3707, 3599, 3686
3770, 3787, 3738, 3947
3886, 3897, 3909, 3825
3894, 3909, 3969, 3855
4111, 4128, 4088, 4063
4169, 4165, 4147, 4251
4265, 4269, 4294, 4450
4450, 4484, 4513, 4560
4664, 4709, 4744, 4770
4984, 5061, 5003, 5156
5181, 5327, 5387, 5478
5560, 5924, 5784, 5821
6014, 6202, 6232, 6397
6549, 6704, 6745, 6943
6854, 7041, 7250, 7223
7294, 7642, 7764, 8041
8183, 8339, 8676, 8683
9012, 9195, 9389, 9884
10031, 10190, 10468, 10750
10497, 10766, 10976, 10767
11002, 10945, 10915, 10759
10719, 10437, 10475, 10170
10004, 9705, 9675, 9466
9023, 8924, 8608, 8339
8341, 8105, 7816, 7901
7288, 7268, 7001, 6835
6773, 6590, 6458, 6230
6095, 6054, 5921, 5759
5684, 5583, 5591, 5526
5314, 5214, 5263, 4975
4912, 4796, 4852, 4718
4741, 4545, 4523, 4564
4391, 4455, 4353, 4201
4174, 4137, 4157, 4039
3973, 3970, 3879, 3890
3846, 3782, 3746, 3813
3723, 3716, 3578, 3622
3549, 3543, 3537, 3457
3395, 3389, 3329, 3467
3393, 3407, 3369, 3374
3217, 3221, 3324, 3262
3223, 3231, 3223, 3203
3138, 3199, 3178, 3209
3211, 3118, 3084, 3149
3122, 3146, 3114, 3113
3093, 3146, 3111, 3091
3025, 3108, 3092, 3080
3141, 3137, 3060, 3217
3200, 3230, 3189, 3170
3219, 3130, 3243, 3208
3209, 3263, 3257, 3384
3370, 3380, 3366, 3467
3501, 3473, 3544, 3508
3606, 3631, 3668, 3599
3719, 3795, 3918, 3903
4004, 4025, 4070, 4218
4244, 4345, 4195, 4356
4377, 4469, 4538, 4585
4580, 4654, 4738, 4746
4641, 4794, 4942, 4769
4918, 4984, 4894, 4985
4940, 5136, 5080, 5171
5167, 5358, 5248, 5378
5505, 5635, 5722, 5919
5826, 5978, 6309, 6508
6560, 6842, 6825, 7049
7066, 7440, 7641, 7751
8152, 8253, 8379, 8433
8639, 8920, 8961, 8974
9057, 8937, 9266, 9384
9402, 9418, 9479, 9306
9312, 9275, 9082, 8946
8971, 8814, 8833, 8748
8342, 8334, 8321, 8094
8131, 7838, 7740, 7625
7522, 7274, 7266, 7340
7185, 7048, 6950, 6877
6899, 6857, 6693, 6842
6652, 6666, 6624, 6912
6813, 6542, 6726, 6624
6836, 6655, 6577, 6680
6709, 6678, 6565, 6524
6478, 6552, 6408, 6410
6356, 6203, 6137, 6114
5986, 5979, 5883, 5843
5846, 5704, 5581, 5445
5500, 5401, 5260, 5061
5049, 4924, 4814, 4798
4798, 4688, 4551, 4571
4392, 4540, 4492, 4296
4345, 4307, 4217, 4070
4071, 4037, 4067, 3966
3890, 3881, 3851, 3857
3669, 3807, 3721, 3584
3519, 3642, 3661, 3531
3462, 3461, 3457, 3438
3466, 3310, 3409, 3314
3326, 3344, 3260, 3292
3243, 3233, 3193, 3252
3156, 3231, 3193, 3321
3141, 3121, 3197, 3230
3222, 3218, 3279, 3175
3134, 3275, 3143, 3176
3196, 3166, 3332, 3273
3339, 3230, 3308, 3308
3167, 3291, 3186, 3176
3137, 3146, 3107, 3067
2986, 2980, 2966, 2896
3006, 2966, 2815, 2834
2902, 2856, 2796, 2754
2856, 2714, 2748, 2751
2742, 2781, 2695, 2614
2677, 2660, 2687, 2662
2671, 2588, 2597, 2636
2606, 2526, 2610, 2613
2649, 2581, 2605, 2601
2574, 2610, 2631, 2524
2588, 2510, 2567, 2619
2592, 2598, 2601, 2575
2499, 2645, 2620, 2678
2663, 2537, 2634, 2668
2476, 2637, 2634, 2585
2553, 2697, 2667, 2596
2592, 2551, 2588, 2571
2570, 2519, 2498, 2471
2494, 2408, 2316, 2410
2291, 2294, 2259, 2201
2178, 2127, 2213, 2169
2123, 2019, 2011, 2077
2079, 2073, 1997, 1992
2053, 1922, 1956, 1938
1943, 1903, 1961, 1886
2015, 1863, 1883, 1931
1869, 1886, 1889, 1879
1872, 1829, 1873, 1896
1838, 1826, 1909, 1899
1881, 1842, 1835, 1862
1828, 1794, 1870, 1895
1764, 1881, 1847, 1854
1866, 1888, 1833, 1806
1892, 1961, 1867, 1826
1853, 1814, 1847, 1916
1928, 1933, 1838, 1915
1885, 1822, 1955, 1956
1961, 1948, 2031, 2017
2017, 1987, 1939, 1998
1970, 2061, 2051, 2085
2067, 2110, 2141, 2127
2186, 2169, 2159, 2219
2245, 2254, 2271, 2199
2242, 2206, 2254, 2244
2196, 2300, 2306, 2146
2260, 2202, 2151, 2250
2159, 2166, 2158, 2154
2080, 2058, 2183, 2054
2152, 2075, 2084, 2135
2009, 2056, 1988, 2023
1997, 1984, 1995, 1942
1923, 1922, 1904, 1930
1949, 1889, 1832, 1885
1863, 1821, 1917, 1847
1846, 1897, 1790, 1727
1800, 1802, 1749, 1787
1719, 1741, 1826, 1748
1702, 1704, 1663, 1647
1703, 1720, 1755, 1775
1717, 1743, 1672, 1691
1659, 1591, 1648, 1642
1629, 1616, 1717, 1643
1642, 1624, 1678, 1652
1657, 1683, 1701, 1600
1626, 1621, 1553, 1638
1601, 1606, 1565, 1591
1626, 1611, 1640, 1608
1551, 1642, 1689, 1635
1572, 1596, 1685, 1669
1594, 1579, 1659, 1606
1621, 1660, 1674, 1621
1637, 1664, 1645, 1634
1604, 1702, 1706, 1603
1637, 1682, 1638, 1676
1684, 1642, 1685, 1569
1616, 1623, 1733, 1637
1678, 1660, 1680, 1639
1674, 1631, 1646, 1674
1738, 1640, 1574, 1713
1593, 1619, 1630, 1559
1521, 1671, 1657, 1632
1622, 1586, 1595, 1647
1586, 1594, 1607, 1631
1635, 1527, 1636, 1590
1517, 1536, 1509, 1513
1585, 1557, 1568, 1516
1586, 1556, 1486, 1481
1441, 1470, 1475, 1527
1534, 1461, 1459, 1438
1516, 1480, 1513, 1507
1555, 1455, 1442, 1401
1482, 1465, 1491, 1442
1441, 1379, 1459, 1484
1442, 1428, 1462, 1456
1450, 1477, 1436, 1467
1410, 1447, 1420, 1441
1452, 1404, 1427, 1399
1353, 1411, 1417, 1490
1483, 1442, 1444, 1456
1362, 1471, 1438, 1441
1440, 1402, 1420, 1339
1479, 1453, 1423, 1477
1459, 1482, 1469, 1444
1431, 1460, 1505, 1424
1392, 1422, 1477, 1439
1415, 1470, 1463, 1409
1427, 1481, 1400, 1417
1324, 1449, 1437, 1465
1411, 1402, 1382, 1433
1445, 1352, 1447, 1367
1431, 1404, 1399, 1394
1416, 1473, 1428, 1391
1478, 1392, 1399, 1396
1416, 1426, 1420, 1362
1438, 1476, 1378, 1412
1400, 1448, 1426, 1387
1476, 1442, 1400, 1414
1418, 1416, 1476, 1482
1416, 1506, 1450, 1402
1426, 1394, 1415, 1401
1510, 1430, 1435, 1450
1448, 1429, 1449, 1470
1480, 1480, 1406, 1475
1527, 1538, 1481, 1395
1459, 1519, 1470, 1484
1501, 1428, 1437, 1559
1628, 1457, 1490, 1425
1544, 1514, 1426, 1498
1520, 1529, 1490, 1499
1472, 1522, 1542, 1523
1494, 1548, 1529, 1588
1620, 1572, 1552, 1628
1626, 1591, 1643, 1617
1583, 1667, 1661, 1634
1631, 1650, 1681, 1695
1689, 1696, 1667, 1769
1700, 1713, 1742, 1778
1736, 1759, 1767, 1771
1797, 1831, 1760, 1843
1804, 1886, 1837, 1927
1867, 1891, 1977, 1959
2016, 2051, 2108, 2067
2108, 2123, 2158, 2175
2224, 2223, 2277, 2311
2263, 2406, 2353, 2450
2444, 2500, 2574, 2479
2566, 2632, 2620, 2732
2735, 2692, 2763, 2838
2889, 2888, 2927, 2932
3043, 3000, 3010, 3044
3093, 3000, 3036, 3064
3113, 3112, 3150, 3120
3117, 3077, 3121, 3011
3134, 3015, 2989, 2911
2956, 3015, 2928, 2909
2968, 2948, 2838, 2781
2830, 2722, 2747, 2729
2637, 2671, 2577, 2568
2567, 2572, 2521, 2556
2491, 2489, 2448, 2422
2467, 2390, 2358, 2279
2353, 2309, 2329, 2347
2263, 2361, 2262, 2208
2268, 2129, 2171, 2162
2113, 2244, 2150, 2145
2075, 2239, 2247, 2067
2076, 2020, 2077, 2146
2158, 2133, 2061, 2037
2097, 2090, 2120, 2010
1998, 2022, 2022, 2021
2055, 2042, 2053, 2071
2047, 2098, 2122, 1982
2046, 2071, 1983, 2036
2118, 2132, 2094, 2007
2066, 2071, 2053, 2220
2105, 2122, 2113, 2145
2195, 2153, 2207, 2225
2276, 2296, 2289, 2187
2204, 2307, 2312, 2297
2222, 2271, 2354, 2338
2283, 2297, 2340, 2372
2355, 2426, 2436, 2360
2329, 2366, 2278, 2400
2429, 2460, 2462, 2450
2383, 2375, 2377, 2407
2382, 2325, 2456, 2418
2401, 2287, 2247, 2413
2289, 2220, 2305, 2314
2380, 2298, 2312, 2325
2386, 2335, 2332, 2285
2283, 2337, 2368, 2272
2339, 2305, 2292, 2397
2405, 2378, 2437, 2412
2410, 2324, 2521, 2406
2501, 2424, 2474, 2498
2546, 2561, 2618, 2609
2737, 2730, 2630, 2744
2582, 2705, 2775, 2740
2797, 2781, 2771, 2849
2750, 2880, 2921, 2891
2905, 2958, 2971, 2881
3052, 2986, 2964, 3052
2926, 3045, 3079, 2987
2977, 2994, 2964, 2966
2916, 2947, 2884, 2954
2862, 2900, 2865, 2854
2915, 2787, 2919, 2833
2723, 2741, 2898, 2755
2740, 2680, 2645, 2683
2601, 2595, 2581, 2605
2617, 2630, 2577, 2566
2547, 2562, 2640, 2591
2575, 2479, 2533, 2588
2538, 2471, 2468, 2514
2522, 2569, 2502, 2565
2493, 2507, 2460, 2503
2519, 2549, 2522, 2547
2565, 2543, 2589, 2500
2521, 2510, 2536, 2601
2500, 2597, 2672, 2520
2618, 2586, 2620, 2635
2651, 2540, 2526, 2599
2568, 2481, 2562, 2544
2459, 2574, 2497, 2528
2471, 2490, 2483, 2450
2473, 2392, 2374, 2326
2392, 2331, 2352, 2288
2390, 2285, 2242, 2256
2297, 2183, 2245, 2232
2154, 2175, 2293, 2188
2193, 2113, 2173, 2200
2143, 2125, 2145, 2151
2201, 2114, 2042, 2051
2062, 2121, 2090, 2021
2121, 2038, 2030, 2041
2082, 2103, 2064, 2005
1986, 1991, 2051, 1973
2068, 1972, 2035, 1964
2057, 1938, 1917, 1984
2017, 1983, 1992, 1991
1961, 1974, 2019, 1945
1930, 1977, 2015, 2051
2042, 1987, 2024, 1999
1969, 1932, 2065, 2060
1980, 2019, 1963, 2063
1982, 1951, 1994, 2073
1981, 2050, 2020, 2046
2032, 2151, 2094, 2158
2084, 2141, 2186, 2142
2094, 2189, 2093, 2235
2197, 2202, 2245, 2152
2218, 2358, 2358, 2305
2376, 2378, 2297, 2321
2433, 2403, 2390, 2466
2504, 2520, 2535, 2634
2710, 2711, 2574, 2775
2708, 2715, 2856, 2850
2825, 2902, 2893, 3022
2971, 2952, 3138, 3026
3038, 3146, 3067, 3135
3151, 3109, 3276, 3239
3159, 3247, 3195, 3262
3134, 3182, 3139, 3104
3094, 3103, 3137, 2969
3011, 3030, 3032, 2972
2861, 2870, 2867, 2886
2977, 2817, 2671, 2833
2717, 2806, 2653, 2671
2694, 2642, 2693, 2552
2666, 2633, 2492, 2501
2479, 2488, 2449, 2517
2467, 2431, 2403, 2354
2327, 2288, 2310, 2264
2374, 2251, 2364, 2338
2353, 2277, 2237, 2189
2230, 2151, 2262, 2180
2190, 2206, 2204, 2134
2131, 2046, 2132, 2205
2054, 2043, 2079, 2036
2047, 2029, 2056, 1984
1966, 1909, 1984, 1931
2032, 2002, 2066, 1997
1958, 1891, 2027, 1951
1945, 1897, 2010, 1999
1860, 1923, 2025, 1936
1948, 1933, 1931, 1907
1833, 1912, 1843, 1876
1828, 1925, 1869, 1818
1897, 1837, 1835, 1821
1866, 1833, 1796, 1811
1835, 1846, 1807, 1832
1822, 1784, 1766, 1704
1789, 1839, 1807, 1754
1794, 1726, 1797, 1797
1739, 1785, 1719, 1773
1739, 1668, 1792, 1740
1720, 1776, 1764, 1762
1729, 1711, 1791, 1762
1719, 1758, 1760, 1753
1739, 1697, 1761, 1772
1788, 1682, 1785, 1746
1706, 1724, 1741, 1714
1723, 1729, 1675, 1740
1683, 1749, 1762, 1690
1685, 1713, 1732, 1725
1767, 1717, 1737, 1829
1727, 1731, 1767, 1802
1753, 1804, 1691, 1764
1756, 1866, 1877, 1837
1808, 1823, 1795, 1850
1848, 1882, 1854, 1791
1842, 1821, 1882, 1875
1935
*END

*EOF
