*RAS_DATA_START
*RAS_HEADER_START
*DISP_FMT_X "%.2f"
*DISP_FMT_Y "%.0f"
*DISP_FULLSCALE "325620.0000000000"
*DISP_LINE_COLOR "255.0000000000"
*DISP_LINE_STYLE "0.0000000000"
*DISP_LINE_WIDTH "0.2500000000"
*DISP_NOTE "Collected Data-3"
*DISP_OFFSET_Y "0.0000000000"
*DISP_PEAKSEARCH_UNIT_Y "cps"
*DISP_RANGE_BOTTOM "0.0000000000"
*DISP_RANGE_LEFT "10.0000000000"
*DISP_RANGE_LOGCUTOFF "0.0100000000"
*DISP_RANGE_RIGHT "80.0000000000"
*DISP_RANGE_TOP "325620.0000000000"
*DISP_SCALE_MODE_Y "0.0000000000"
*DISP_TAB_NAME "Theta/2-Theta"
*DISP_TITLE_Y "Intensity"
*DISP_UNIT_Y "cps"
*DISP_WINDOW_NAME "MSG_MACROENGINE"
*FILE_COMMENT " "
*FILE_MD5 ""
*FILE_MEMO " "
*FILE_OPERATOR "administrator"
*FILE_SAMPLE " "
*FILE_TYPE "RAS_RAW"
*FILE_USERGROUP "System Manager"
*FILE_VERSION "1.0000000000"
*HW_ATTACHMENT_ID "ATT0025"
*HW_ATTACHMENT_NAME "標準|Standard"
*HW_COUNTER_ID-0 "CUT0025"
*HW_COUNTER_ID-1 "CUT0020"
*HW_COUNTER_ID-2 "CUT0020"
*HW_COUNTER_ID-3 "CSL0021"
*HW_COUNTER_ID-4 "CMC0021"
*HW_COUNTER_NAME-0 "D/teX Ultra|D/teX Ultra"
*HW_COUNTER_NAME-1 "None|None"
*HW_COUNTER_NAME-2 "None|None"
*HW_COUNTER_NAME-3 "BBM|BBM"
*HW_COUNTER_NAME-4 "検出器モノクロメータ|Detector monochromator"
*HW_COUNTER_SELECT_NAME "D/teX Ultra|D/teX Ultra"
*HW_GONIOMETER_ID "GON0023"
*HW_GONIOMETER_NAME "SmartLab|SmartLab"
*HW_GONIOMETER_RADIUS-0 "90.0"
*HW_GONIOMETER_RADIUS-1 "114.0"
*HW_GONIOMETER_RADIUS-2 "190.0"
*HW_GONIOMETER_RADIUS-3 "300.0"
*HW_GONIOMETER_RADIUS-4 "187.0"
*HW_GONIOMETER_RADIUS-5 "300.0"
*HW_GONIOMETER_RADIUS-6 "113.0"
*HW_GONIOMETER_RADIUS-7 "331.0"
*HW_I_OPT_ID-0 "CBO0021"
*HW_I_OPT_ID-1 "ICR0023"
*HW_I_OPT_ID-2 "ISL0021"
*HW_I_OPT_ID-3 "ISO0021"
*HW_I_OPT_ID-4 "IAD0021"
*HW_I_OPT_ID-5 "IPR0001"
*HW_I_OPT_NAME-0 "CBOユニット|CBO unit"
*HW_I_OPT_NAME-1 "標準入射光学ユニット|Standard incident optical unit"
*HW_I_OPT_NAME-2 "標準入射スリットボックス|Standard incident slit box"
*HW_I_OPT_NAME-3 "入射平行スリット|Incident parallel slit"
*HW_I_OPT_NAME-4 "長手制限スリット|Length limiting slit"
*HW_I_OPT_NAME-5 "None|None"
*HW_R_ATTENUATER_AUTOMODE "0"
*HW_R_OPT_ID-0 "RSS0021"
*HW_R_OPT_ID-1 "RCR0023"
*HW_R_OPT_ID-2 "RSO0021"
*HW_R_OPT_ID-3 "RRS0021"
*HW_R_OPT_ID-4 "ATN0021"
*HW_R_OPT_ID-5 "RFL0021"
*HW_R_OPT_ID-6 "RAD0021"
*HW_R_OPT_NAME-0 "標準受光スリットボックス1|Standard receiving slit box # 1"
*HW_R_OPT_NAME-1 "標準受光光学ユニット1|Standard receiving unit # 1"
*HW_R_OPT_NAME-2 "標準受光光学ユニット2|Standard receiving optical unit # 2"
*HW_R_OPT_NAME-3 "標準受光スリットボックス2|Standard receiving slit box # 2"
*HW_R_OPT_NAME-4 "標準アッテネータ|Standard Attenuator"
*HW_R_OPT_NAME-5 "Cu Kβ|Cu K-beta"
*HW_R_OPT_NAME-6 "調整用受光スリット|Alignment receiving slit"
*HW_SAMPLE_HOLDER_ID "SMP0023"
*HW_SAMPLE_HOLDER_NAME "標準Zステージ|Standard Z stage"
*HW_XG_CURRENT_MAX "200"
*HW_XG_CURRENT_MIN "10"
*HW_XG_CURRENT_RESOLUTION "2"
*HW_XG_CURRENT_UNIT "mA"
*HW_XG_FOCUS ""
*HW_XG_FOCUS_TYPE "Normal"
*HW_XG_ID ""
*HW_XG_NAME "9kW 開放管(45kV 200mA ID:1700)|9kW Rotating anode(45kV 200mA ID:1700)"
*HW_XG_TARGET_ATOMIC_NUMBER "29.0000000000"
*HW_XG_TARGET_NAME "Cu"
*HW_XG_TYPE "Rota"
*HW_XG_VOLTAGE_MAX "45"
*HW_XG_VOLTAGE_MIN "20"
*HW_XG_VOLTAGE_RESOLUTION "2"
*HW_XG_VOLTAGE_UNIT "kV"
*HW_XG_WATT_MAX "9"
*HW_XG_WATT_UNIT "kW"
*HW_XG_WAVE_LENGTH_ALPHA1 "1.540593"
*HW_XG_WAVE_LENGTH_ALPHA2 "1.544414"
*HW_XG_WAVE_LENGTH_BETA "1.392250"
*MEAS_COND_AXIS_NAME-0 "Theta/2-Theta"
*MEAS_COND_AXIS_NAME-1 "2-Theta"
*MEAS_COND_AXIS_NAME-2 "Omega"
*MEAS_COND_AXIS_NAME-3 "Z"
*MEAS_COND_AXIS_NAME-4 "2-Theta/Omega"
*MEAS_COND_AXIS_NAME-5 "Theta_s"
*MEAS_COND_AXIS_NAME-6 "Theta_d"
*MEAS_COND_AXIS_NAME-7 "Ts"
*MEAS_COND_AXIS_NAME-8 "CBO selection slit"
*MEAS_COND_AXIS_NAME-9 "M"
*MEAS_COND_AXIS_NAME-10 "Incident parallel slit"
*MEAS_COND_AXIS_NAME-11 "Incident slit"
*MEAS_COND_AXIS_NAME-12 ""
*MEAS_COND_AXIS_NAME-13 "Zs"
*MEAS_COND_AXIS_NAME-14 "Incident monochromator"
*MEAS_COND_AXIS_NAME-15 "Length limiting slit"
*MEAS_COND_AXIS_NAME-16 "Center slit"
*MEAS_COND_AXIS_NAME-17 "Filter"
*MEAS_COND_AXIS_NAME-18 "Receiving slit # 1"
*MEAS_COND_AXIS_NAME-19 "Receiving slit # 2"
*MEAS_COND_AXIS_NAME-20 "Receiving optical device"
*MEAS_COND_AXIS_NAME-21 "Receiving parallel slit"
*MEAS_COND_AXIS_NAME-22 "Alignment receiving slit"
*MEAS_COND_AXIS_NAME-23 ""
*MEAS_COND_AXIS_NAME-24 ""
*MEAS_COND_AXIS_NAME-25 "Zd"
*MEAS_COND_AXIS_NAME-26 "Attenuator"
*MEAS_COND_AXIS_NAME-27 "Diffracted beam monochromator"
*MEAS_COND_AXIS_NAME-28 "Monochromator slit"
*MEAS_COND_AXIS_NAME-29 "Primary beam"
*MEAS_COND_AXIS_NAME-30 "PHA"
*MEAS_COND_AXIS_NAME_INTERNAL-0 "TwoThetaTheta"
*MEAS_COND_AXIS_NAME_INTERNAL-1 "TwoTheta"
*MEAS_COND_AXIS_NAME_INTERNAL-2 "Omega"
*MEAS_COND_AXIS_NAME_INTERNAL-3 "Z"
*MEAS_COND_AXIS_NAME_INTERNAL-4 "TwoThetaOmega"
*MEAS_COND_AXIS_NAME_INTERNAL-5 "ThetaS"
*MEAS_COND_AXIS_NAME_INTERNAL-6 "ThetaD"
*MEAS_COND_AXIS_NAME_INTERNAL-7 "Ts"
*MEAS_COND_AXIS_NAME_INTERNAL-8 "CBO"
*MEAS_COND_AXIS_NAME_INTERNAL-9 "CBO-M"
*MEAS_COND_AXIS_NAME_INTERNAL-10 "IncidentSollerSlit"
*MEAS_COND_AXIS_NAME_INTERNAL-11 "IncidentSlitBox"
*MEAS_COND_AXIS_NAME_INTERNAL-12 "IncidentSlitBox-_Axis"
*MEAS_COND_AXIS_NAME_INTERNAL-13 "Zs"
*MEAS_COND_AXIS_NAME_INTERNAL-14 "IncidentMonochromator"
*MEAS_COND_AXIS_NAME_INTERNAL-15 "IncidentAxdSlit"
*MEAS_COND_AXIS_NAME_INTERNAL-16 "CenterSlit"
*MEAS_COND_AXIS_NAME_INTERNAL-17 "Filter"
*MEAS_COND_AXIS_NAME_INTERNAL-18 "ReceivingSlitBox1"
*MEAS_COND_AXIS_NAME_INTERNAL-19 "ReceivingSlitBox2"
*MEAS_COND_AXIS_NAME_INTERNAL-20 "ReceivingOptics"
*MEAS_COND_AXIS_NAME_INTERNAL-21 "ReceivingSollerSlit"
*MEAS_COND_AXIS_NAME_INTERNAL-22 "ReceivingAxdSlit"
*MEAS_COND_AXIS_NAME_INTERNAL-23 "ReceivingSlitBox1-_Axis"
*MEAS_COND_AXIS_NAME_INTERNAL-24 "ReceivingSlitBox2-_Axis"
*MEAS_COND_AXIS_NAME_INTERNAL-25 "ReceivingSlitBox2-Zd"
*MEAS_COND_AXIS_NAME_INTERNAL-26 "Attenuator"
*MEAS_COND_AXIS_NAME_INTERNAL-27 "CounterMonochromator"
*MEAS_COND_AXIS_NAME_INTERNAL-28 "CounterSlit"
*MEAS_COND_AXIS_NAME_INTERNAL-29 "IncidentPrimary"
*MEAS_COND_AXIS_NAME_INTERNAL-30 "PHA"
*MEAS_COND_AXIS_NAME_MAGICNO-0 "83951616.0000000000"
*MEAS_COND_AXIS_NAME_MAGICNO-1 "268632064.0000000000"
*MEAS_COND_AXIS_NAME_MAGICNO-2 "268500992.0000000000"
*MEAS_COND_AXIS_NAME_MAGICNO-3 "285278208.0000000000"
*MEAS_COND_AXIS_NAME_MAGICNO-4 "83951616.0000000000"
*MEAS_COND_AXIS_NAME_MAGICNO-5 "131072.0000000000"
*MEAS_COND_AXIS_NAME_MAGICNO-6 "131072.0000000000"
*MEAS_COND_AXIS_NAME_MAGICNO-7 "318898176.0000000000"
*MEAS_COND_AXIS_NAME_MAGICNO-8 "20971521.0000000000"
*MEAS_COND_AXIS_NAME_MAGICNO-9 "285343744.0000000000"
*MEAS_COND_AXIS_NAME_MAGICNO-10 "20971521.0000000000"
*MEAS_COND_AXIS_NAME_MAGICNO-11 "22020097.0000000000"
*MEAS_COND_AXIS_NAME_MAGICNO-12 "25165824.0000000000"
*MEAS_COND_AXIS_NAME_MAGICNO-13 "318898176.0000000000"
*MEAS_COND_AXIS_NAME_MAGICNO-14 "1.0000000000"
*MEAS_COND_AXIS_NAME_MAGICNO-15 "20971521.0000000000"
*MEAS_COND_AXIS_NAME_MAGICNO-16 "20971521.0000000000"
*MEAS_COND_AXIS_NAME_MAGICNO-17 "20971521.0000000000"
*MEAS_COND_AXIS_NAME_MAGICNO-18 "23068673.0000000000"
*MEAS_COND_AXIS_NAME_MAGICNO-19 "23068673.0000000000"
*MEAS_COND_AXIS_NAME_MAGICNO-20 "20971521.0000000000"
*MEAS_COND_AXIS_NAME_MAGICNO-21 "20971521.0000000000"
*MEAS_COND_AXIS_NAME_MAGICNO-22 "20971521.0000000000"
*MEAS_COND_AXIS_NAME_MAGICNO-23 "25165824.0000000000"
*MEAS_COND_AXIS_NAME_MAGICNO-24 "25165824.0000000000"
*MEAS_COND_AXIS_NAME_MAGICNO-25 "285343744.0000000000"
*MEAS_COND_AXIS_NAME_MAGICNO-26 "17301505.0000000000"
*MEAS_COND_AXIS_NAME_MAGICNO-27 "20971521.0000000000"
*MEAS_COND_AXIS_NAME_MAGICNO-28 "20971521.0000000000"
*MEAS_COND_AXIS_NAME_MAGICNO-29 "20971521.0000000000"
*MEAS_COND_AXIS_NAME_MAGICNO-30 "0.0000000000"
*MEAS_COND_AXIS_OFFSET-0 "-"
*MEAS_COND_AXIS_OFFSET-1 "0.2295000000"
*MEAS_COND_AXIS_OFFSET-2 "0.6931000000"
*MEAS_COND_AXIS_OFFSET-3 "-"
*MEAS_COND_AXIS_OFFSET-4 "-"
*MEAS_COND_AXIS_OFFSET-5 "0.6931000000"
*MEAS_COND_AXIS_OFFSET-6 "-0.4636000000"
*MEAS_COND_AXIS_OFFSET-7 "-"
*MEAS_COND_AXIS_OFFSET-8 "-"
*MEAS_COND_AXIS_OFFSET-9 "-"
*MEAS_COND_AXIS_OFFSET-10 "-"
*MEAS_COND_AXIS_OFFSET-11 "-"
*MEAS_COND_AXIS_OFFSET-12 "-"
*MEAS_COND_AXIS_OFFSET-13 "-"
*MEAS_COND_AXIS_OFFSET-14 "-"
*MEAS_COND_AXIS_OFFSET-15 "-"
*MEAS_COND_AXIS_OFFSET-16 "-"
*MEAS_COND_AXIS_OFFSET-17 "-"
*MEAS_COND_AXIS_OFFSET-18 "-"
*MEAS_COND_AXIS_OFFSET-19 "-"
*MEAS_COND_AXIS_OFFSET-20 "-"
*MEAS_COND_AXIS_OFFSET-21 "-"
*MEAS_COND_AXIS_OFFSET-22 "-"
*MEAS_COND_AXIS_OFFSET-23 "-"
*MEAS_COND_AXIS_OFFSET-24 "-"
*MEAS_COND_AXIS_OFFSET-25 "-"
*MEAS_COND_AXIS_OFFSET-26 "-"
*MEAS_COND_AXIS_OFFSET-27 "-"
*MEAS_COND_AXIS_OFFSET-28 "-"
*MEAS_COND_AXIS_OFFSET-29 "-"
*MEAS_COND_AXIS_OFFSET-30 "-"
*MEAS_COND_AXIS_POSITION-0 "0.0000000000"
*MEAS_COND_AXIS_POSITION-1 "0.0000000000"
*MEAS_COND_AXIS_POSITION-2 "0.0000000000"
*MEAS_COND_AXIS_POSITION-3 "0.0000000000"
*MEAS_COND_AXIS_POSITION-4 "0.0000000000"
*MEAS_COND_AXIS_POSITION-5 "0.0000000000"
*MEAS_COND_AXIS_POSITION-6 "0.0000000000"
*MEAS_COND_AXIS_POSITION-7 "-0.1069400000"
*MEAS_COND_AXIS_POSITION-8 "BB"
*MEAS_COND_AXIS_POSITION-9 "0.0000000000"
*MEAS_COND_AXIS_POSITION-10 "Soller_slit_5.0deg"
*MEAS_COND_AXIS_POSITION-11 "2/3deg"
*MEAS_COND_AXIS_POSITION-12 "2.2088000000"
*MEAS_COND_AXIS_POSITION-13 "0.6687500000"
*MEAS_COND_AXIS_POSITION-14 "0.0000000000"
*MEAS_COND_AXIS_POSITION-15 "10.0mm"
*MEAS_COND_AXIS_POSITION-16 "None"
*MEAS_COND_AXIS_POSITION-17 "Cu_K-beta"
*MEAS_COND_AXIS_POSITION-18 "20.000mm"
*MEAS_COND_AXIS_POSITION-19 "20.000mm"
*MEAS_COND_AXIS_POSITION-20 "No_unit"
*MEAS_COND_AXIS_POSITION-21 "Soller_slit_5.0deg"
*MEAS_COND_AXIS_POSITION-22 "None"
*MEAS_COND_AXIS_POSITION-23 "20.0000000000"
*MEAS_COND_AXIS_POSITION-24 "20.0000000000"
*MEAS_COND_AXIS_POSITION-25 "0.2378100000"
*MEAS_COND_AXIS_POSITION-26 "Open"
*MEAS_COND_AXIS_POSITION-27 "None"
*MEAS_COND_AXIS_POSITION-28 "None"
*MEAS_COND_AXIS_POSITION-29 "None"
*MEAS_COND_AXIS_POSITION-30 "35.0000000000"
*MEAS_COND_AXIS_UNIT-0 "deg"
*MEAS_COND_AXIS_UNIT-1 "deg"
*MEAS_COND_AXIS_UNIT-2 "deg"
*MEAS_COND_AXIS_UNIT-3 "mm"
*MEAS_COND_AXIS_UNIT-4 "deg"
*MEAS_COND_AXIS_UNIT-5 "deg"
*MEAS_COND_AXIS_UNIT-6 "deg"
*MEAS_COND_AXIS_UNIT-7 "mm"
*MEAS_COND_AXIS_UNIT-8 ""
*MEAS_COND_AXIS_UNIT-9 "pulse"
*MEAS_COND_AXIS_UNIT-10 ""
*MEAS_COND_AXIS_UNIT-11 ""
*MEAS_COND_AXIS_UNIT-12 "mm"
*MEAS_COND_AXIS_UNIT-13 "mm"
*MEAS_COND_AXIS_UNIT-14 ""
*MEAS_COND_AXIS_UNIT-15 ""
*MEAS_COND_AXIS_UNIT-16 ""
*MEAS_COND_AXIS_UNIT-17 ""
*MEAS_COND_AXIS_UNIT-18 ""
*MEAS_COND_AXIS_UNIT-19 ""
*MEAS_COND_AXIS_UNIT-20 ""
*MEAS_COND_AXIS_UNIT-21 ""
*MEAS_COND_AXIS_UNIT-22 ""
*MEAS_COND_AXIS_UNIT-23 "mm"
*MEAS_COND_AXIS_UNIT-24 "mm"
*MEAS_COND_AXIS_UNIT-25 "mm"
*MEAS_COND_AXIS_UNIT-26 ""
*MEAS_COND_AXIS_UNIT-27 ""
*MEAS_COND_AXIS_UNIT-28 ""
*MEAS_COND_AXIS_UNIT-29 ""
*MEAS_COND_AXIS_UNIT-30 "div"
*MEAS_COND_COUNTER_CNTLOSS_CORR "0.0000000000"
*MEAS_COND_COUNTER_PHABASE "35.0000000000"
*MEAS_COND_COUNTER_PHAWINDOW "15.0000000000"
*MEAS_COND_COUNTER_PHA_UNIT "div"
*MEAS_COND_COUNTER_TAUDIFF "30.0000000000"
*MEAS_COND_COUNTER_TAUINT "0.0000000000"
*MEAS_COND_IRRADIATION_MODE "OFF"
*MEAS_COND_IRRADIATION_WIDTH ""
*MEAS_COND_OPT_ATTR "Bragg-Brentano focusing"
*MEAS_COND_OPT_NAME "@BB focusing"
*MEAS_COND_UNSYMMETRIC_MODE "OFF"
*MEAS_COND_XG_CURRENT "150.0000000000"
*MEAS_COND_XG_VOLTAGE "40.0000000000"
*MEAS_COND_XG_WAVE_TYPE "Ka"
*MEAS_DATA_COUNT "3501.0000000000"
*MEAS_SCAN_AXIS_X "Theta/2-Theta"
*MEAS_SCAN_AXIS_X_INTERNAL "TwoThetaTheta"
*MEAS_SCAN_END_TIME "06/01/26 15:19:31"
*MEAS_SCAN_MODE "CONTINUOUS"
*MEAS_SCAN_MONITOR "0"
*MEAS_SCAN_RESOLUTION_X "0.0002"
*MEAS_SCAN_SPEED "10.0"
*MEAS_SCAN_SPEED_UNIT "deg/min"
*MEAS_SCAN_START "10.0000000000"
*MEAS_SCAN_START_TIME "06/01/26 15:11:52"
*MEAS_SCAN_STEP "0.0200000000"
*MEAS_SCAN_STOP "80.0000000000"
*MEAS_SCAN_UNIT_X "deg"
*MEAS_SCAN_UNIT_Y "counts"
*RAS_HEADER_END
*RAS_INT_START
10.0000 6378.0000 1.0000
10.0200 6282.0000 1.0000
10.0400 6357.0000 1.0000
10.0600 6159.0000 1.0000
10.0800 6275.0000 1.0000
10.1000 6422.0000 1.0000
10.1200 6487.0000 1.0000
10.1400 6388.0000 1.0000
10.1600 6353.0000 1.0000
10.1800 6308.0000 1.0000
10.2000 6016.0000 1.0000
10.2200 6019.0000 1.0000
10.2400 5919.0000 1.0000
10.2600 5946.0000 1.0000
10.2800 5922.0000 1.0000
10.3000 5953.0000 1.0000
10.3200 5952.0000 1.0000
10.3400 5953.0000 1.0000
10.3600 5957.0000 1.0000
10.3800 5840.0000 1.0000
10.4000 5858.0000 1.0000
10.4200 5747.0000 1.0000
10.4400 5878.0000 1.0000
10.4600 5901.0000 1.0000
10.4800 5672.0000 1.0000
10.5000 5809.0000 1.0000
10.5200 5909.0000 1.0000
10.5400 5870.0000 1.0000
10.5600 5754.0000 1.0000
10.5800 5712.0000 1.0000
10.6000 5814.0000 1.0000
10.6200 5735.0000 1.0000
10.6400 5724.0000 1.0000
10.6600 5744.0000 1.0000
10.6800 5716.0000 1.0000
10.7000 5783.0000 1.0000
10.7200 5715.0000 1.0000
10.7400 5789.0000 1.0000
10.7600 5744.0000 1.0000
10.7800 5673.0000 1.0000
10.8000 5851.0000 1.0000
10.8200 5753.0000 1.0000
10.8400 5636.0000 1.0000
10.8600 5593.0000 1.0000
10.8800 5692.0000 1.0000
10.9000 5612.0000 1.0000
10.9200 5635.0000 1.0000
10.9400 5591.0000 1.0000
10.9600 5538.0000 1.0000
10.9800 5612.0000 1.0000
11.0000 5647.0000 1.0000
11.0200 5522.0000 1.0000
11.0400 5627.0000 1.0000
11.0600 5448.0000 1.0000
11.0800 5480.0000 1.0000
11.1000 5544.0000 1.0000
11.1200 5419.0000 1.0000
11.1400 5553.0000 1.0000
11.1600 5423.0000 1.0000
11.1800 5374.0000 1.0000
11.2000 5449.0000 1.0000
11.2200 5493.0000 1.0000
11.2400 5434.0000 1.0000
11.2600 5448.0000 1.0000
11.2800 5415.0000 1.0000
11.3000 5455.0000 1.0000
11.3200 5467.0000 1.0000
11.3400 5353.0000 1.0000
11.3600 5445.0000 1.0000
11.3800 5495.0000 1.0000
11.4000 5395.0000 1.0000
11.4200 5339.0000 1.0000
11.4400 5297.0000 1.0000
11.4600 5469.0000 1.0000
11.4800 5364.0000 1.0000
11.5000 5445.0000 1.0000
11.5200 5363.0000 1.0000
11.5400 5369.0000 1.0000
11.5600 5238.0000 1.0000
11.5800 5213.0000 1.0000
11.6000 5226.0000 1.0000
11.6200 5319.0000 1.0000
11.6400 5323.0000 1.0000
11.6600 5357.0000 1.0000
11.6800 5274.0000 1.0000
11.7000 5258.0000 1.0000
11.7200 5238.0000 1.0000
11.7400 5279.0000 1.0000
11.7600 5031.0000 1.0000
11.7800 5198.0000 1.0000
11.8000 5213.0000 1.0000
11.8200 5229.0000 1.0000
11.8400 5084.0000 1.0000
11.8600 5103.0000 1.0000
11.8800 5133.0000 1.0000
11.9000 5242.0000 1.0000
11.9200 5249.0000 1.0000
11.9400 5258.0000 1.0000
11.9600 5025.0000 1.0000
11.9800 5068.0000 1.0000
12.0000 5184.0000 1.0000
12.0200 5148.0000 1.0000
12.0400 5184.0000 1.0000
12.0600 5128.0000 1.0000
12.0800 5018.0000 1.0000
12.1000 5081.0000 1.0000
12.1200 5067.0000 1.0000
12.1400 5030.0000 1.0000
12.1600 5064.0000 1.0000
12.1800 5137.0000 1.0000
12.2000 5097.0000 1.0000
12.2200 4993.0000 1.0000
12.2400 5023.0000 1.0000
12.2600 4939.0000 1.0000
12.2800 4945.0000 1.0000
12.3000 5085.0000 1.0000
12.3200 4861.0000 1.0000
12.3400 4864.0000 1.0000
12.3600 4874.0000 1.0000
12.3800 4870.0000 1.0000
12.4000 4853.0000 1.0000
12.4200 4987.0000 1.0000
12.4400 4992.0000 1.0000
12.4600 4940.0000 1.0000
12.4800 4818.0000 1.0000
12.5000 4718.0000 1.0000
12.5200 4751.0000 1.0000
12.5400 4759.0000 1.0000
12.5600 4759.0000 1.0000
12.5800 4743.0000 1.0000
12.6000 4645.0000 1.0000
12.6200 4606.0000 1.0000
12.6400 4673.0000 1.0000
12.6600 4822.0000 1.0000
12.6800 4772.0000 1.0000
12.7000 4699.0000 1.0000
12.7200 4686.0000 1.0000
12.7400 4745.0000 1.0000
12.7600 4668.0000 1.0000
12.7800 4769.0000 1.0000
12.8000 4557.0000 1.0000
12.8200 4457.0000 1.0000
12.8400 4629.0000 1.0000
12.8600 4636.0000 1.0000
12.8800 4608.0000 1.0000
12.9000 4683.0000 1.0000
12.9200 4686.0000 1.0000
12.9400 4533.0000 1.0000
12.9600 4621.0000 1.0000
12.9800 4584.0000 1.0000
13.0000 4533.0000 1.0000
13.0200 4416.0000 1.0000
13.0400 4431.0000 1.0000
13.0600 4548.0000 1.0000
13.0800 4556.0000 1.0000
13.1000 4476.0000 1.0000
13.1200 4492.0000 1.0000
13.1400 4465.0000 1.0000
13.1600 4446.0000 1.0000
13.1800 4401.0000 1.0000
13.2000 4447.0000 1.0000
13.2200 4280.0000 1.0000
13.2400 4337.0000 1.0000
13.2600 4288.0000 1.0000
13.2800 4366.0000 1.0000
13.3000 4249.0000 1.0000
13.3200 4253.0000 1.0000
13.3400 4313.0000 1.0000
13.3600 4313.0000 1.0000
13.3800 4270.0000 1.0000
13.4000 4142.0000 1.0000
13.4200 4339.0000 1.0000
13.4400 4305.0000 1.0000
13.4600 4233.0000 1.0000
13.4800 4214.0000 1.0000
13.5000 4227.0000 1.0000
13.5200 4220.0000 1.0000
13.5400 4270.0000 1.0000
13.5600 4133.0000 1.0000
13.5800 4113.0000 1.0000
13.6000 4167.0000 1.0000
13.6200 4131.0000 1.0000
13.6400 4119.0000 1.0000
13.6600 4111.0000 1.0000
13.6800 4076.0000 1.0000
13.7000 4054.0000 1.0000
13.7200 4049.0000 1.0000
13.7400 4112.0000 1.0000
13.7600 4099.0000 1.0000
13.7800 4105.0000 1.0000
13.8000 4135.0000 1.0000
13.8200 4072.0000 1.0000
13.8400 3973.0000 1.0000
13.8600 4035.0000 1.0000
13.8800 4003.0000 1.0000
13.9000 3902.0000 1.0000
13.9200 3984.0000 1.0000
13.9400 3900.0000 1.0000
13.9600 3981.0000 1.0000
13.9800 3926.0000 1.0000
14.0000 3996.0000 1.0000
14.0200 3975.0000 1.0000
14.0400 3905.0000 1.0000
14.0600 3922.0000 1.0000
14.0800 3971.0000 1.0000
14.1000 3929.0000 1.0000
14.1200 3943.0000 1.0000
14.1400 3963.0000 1.0000
14.1600 3956.0000 1.0000
14.1800 3843.0000 1.0000
14.2000 3816.0000 1.0000
14.2200 3901.0000 1.0000
14.2400 3840.0000 1.0000
14.2600 3850.0000 1.0000
14.2800 3882.0000 1.0000
14.3000 3999.0000 1.0000
14.3200 3865.0000 1.0000
14.3400 3962.0000 1.0000
14.3600 3943.0000 1.0000
14.3800 3848.0000 1.0000
14.4000 3900.0000 1.0000
14.4200 3790.0000 1.0000
14.4400 3912.0000 1.0000
14.4600 3740.0000 1.0000
14.4800 3786.0000 1.0000
14.5000 3718.0000 1.0000
14.5200 3631.0000 1.0000
14.5400 3615.0000 1.0000
14.5600 3659.0000 1.0000
14.5800 3692.0000 1.0000
14.6000 3736.0000 1.0000
14.6200 3545.0000 1.0000
14.6400 3475.0000 1.0000
14.6600 3541.0000 1.0000
14.6800 3492.0000 1.0000
14.7000 3631.0000 1.0000
14.7200 3569.0000 1.0000
14.7400 3648.0000 1.0000
14.7600 3517.0000 1.0000
14.7800 3455.0000 1.0000
14.8000 3370.0000 1.0000
14.8200 3521.0000 1.0000
14.8400 3499.0000 1.0000
14.8600 3465.0000 1.0000
14.8800 3458.0000 1.0000
14.9000 3443.0000 1.0000
14.9200 3429.0000 1.0000
14.9400 3497.0000 1.0000
14.9600 3466.0000 1.0000
14.9800 3491.0000 1.0000
15.0000 3448.0000 1.0000
15.0200 3392.0000 1.0000
15.0400 3496.0000 1.0000
15.0600 3433.0000 1.0000
15.0800 3383.0000 1.0000
15.1000 3363.0000 1.0000
15.1200 3376.0000 1.0000
15.1400 3373.0000 1.0000
15.1600 3478.0000 1.0000
15.1800 3279.0000 1.0000
15.2000 3376.0000 1.0000
15.2200 3380.0000 1.0000
15.2400 3430.0000 1.0000
15.2600 3321.0000 1.0000
15.2800 3335.0000 1.0000
15.3000 3327.0000 1.0000
15.3200 3207.0000 1.0000
15.3400 3270.0000 1.0000
15.3600 3365.0000 1.0000
15.3800 3321.0000 1.0000
15.4000 3182.0000 1.0000
15.4200 3299.0000 1.0000
15.4400 3293.0000 1.0000
15.4600 3155.0000 1.0000
15.4800 3249.0000 1.0000
15.5000 3302.0000 1.0000
15.5200 3210.0000 1.0000
15.5400 3259.0000 1.0000
15.5600 3287.0000 1.0000
15.5800 3203.0000 1.0000
15.6000 3216.0000 1.0000
15.6200 3268.0000 1.0000
15.6400 3262.0000 1.0000
15.6600 3250.0000 1.0000
15.6800 3192.0000 1.0000
15.7000 3230.0000 1.0000
15.7200 3146.0000 1.0000
15.7400 3089.0000 1.0000
15.7600 3090.0000 1.0000
15.7800 3201.0000 1.0000
15.8000 3222.0000 1.0000
15.8200 3188.0000 1.0000
15.8400 3116.0000 1.0000
15.8600 3237.0000 1.0000
15.8800 3179.0000 1.0000
15.9000 3137.0000 1.0000
15.9200 3016.0000 1.0000
15.9400 3162.0000 1.0000
15.9600 3168.0000 1.0000
15.9800 3109.0000 1.0000
16.0000 3088.0000 1.0000
16.0200 3136.0000 1.0000
16.0400 3153.0000 1.0000
16.0600 3102.0000 1.0000
16.0800 3112.0000 1.0000
16.1000 3194.0000 1.0000
16.1200 3092.0000 1.0000
16.1400 3117.0000 1.0000
16.1600 3103.0000 1.0000
16.1800 3118.0000 1.0000
16.2000 3107.0000 1.0000
16.2200 3136.0000 1.0000
16.2400 2977.0000 1.0000
16.2600 3063.0000 1.0000
16.2800 3028.0000 1.0000
16.3000 3104.0000 1.0000
16.3200 3020.0000 1.0000
16.3400 3032.0000 1.0000
16.3600 2960.0000 1.0000
16.3800 3052.0000 1.0000
16.4000 3121.0000 1.0000
16.4200 2945.0000 1.0000
16.4400 3048.0000 1.0000
16.4600 3072.0000 1.0000
16.4800 2998.0000 1.0000
16.5000 2964.0000 1.0000
16.5200 2974.0000 1.0000
16.5400 2958.0000 1.0000
16.5600 3016.0000 1.0000
16.5800 3005.0000 1.0000
16.6000 3047.0000 1.0000
16.6200 2974.0000 1.0000
16.6400 3027.0000 1.0000
16.6600 3023.0000 1.0000
16.6800 2977.0000 1.0000
16.7000 2962.0000 1.0000
16.7200 2973.0000 1.0000
16.7400 3020.0000 1.0000
16.7600 2923.0000 1.0000
16.7800 2958.0000 1.0000
16.8000 2968.0000 1.0000
16.8200 2997.0000 1.0000
16.8400 2998.0000 1.0000
16.8600 3025.0000 1.0000
16.8800 2919.0000 1.0000
16.9000 2983.0000 1.0000
16.9200 2977.0000 1.0000
16.9400 2940.0000 1.0000
16.9600 2982.0000 1.0000
16.9800 2895.0000 1.0000
17.0000 2909.0000 1.0000
17.0200 2950.0000 1.0000
17.0400 2885.0000 1.0000
17.0600 2894.0000 1.0000
17.0800 2946.0000 1.0000
17.1000 2844.0000 1.0000
17.1200 2951.0000 1.0000
17.1400 2939.0000 1.0000
17.1600 2934.0000 1.0000
17.1800 2918.0000 1.0000
17.2000 2907.0000 1.0000
17.2200 2998.0000 1.0000
17.2400 2957.0000 1.0000
17.2600 2917.0000 1.0000
17.2800 2941.0000 1.0000
17.3000 2891.0000 1.0000
17.3200 2900.0000 1.0000
17.3400 2971.0000 1.0000
17.3600 2909.0000 1.0000
17.3800 2999.0000 1.0000
17.4000 2793.0000 1.0000
17.4200 2871.0000 1.0000
17.4400 2868.0000 1.0000
17.4600 2836.0000 1.0000
17.4800 2780.0000 1.0000
17.5000 2844.0000 1.0000
17.5200 2926.0000 1.0000
17.5400 2837.0000 1.0000
17.5600 2772.0000 1.0000
17.5800 2865.0000 1.0000
17.6000 2961.0000 1.0000
17.6200 2887.0000 1.0000
17.6400 3021.0000 1.0000
17.6600 2842.0000 1.0000
17.6800 2779.0000 1.0000
17.7000 2898.0000 1.0000
17.7200 2780.0000 1.0000
17.7400 2832.0000 1.0000
17.7600 2836.0000 1.0000
17.7800 2948.0000 1.0000
17.8000 2759.0000 1.0000
17.8200 2889.0000 1.0000
17.8400 2813.0000 1.0000
17.8600 2866.0000 1.0000
17.8800 2822.0000 1.0000
17.9000 2859.0000 1.0000
17.9200 2857.0000 1.0000
17.9400 2848.0000 1.0000
17.9600 2911.0000 1.0000
17.9800 2878.0000 1.0000
18.0000 2775.0000 1.0000
18.0200 2729.0000 1.0000
18.0400 2805.0000 1.0000
18.0600 2913.0000 1.0000
18.0800 2854.0000 1.0000
18.1000 2782.0000 1.0000
18.1200 2838.0000 1.0000
18.1400 2836.0000 1.0000
18.1600 2716.0000 1.0000
18.1800 2857.0000 1.0000
18.2000 2849.0000 1.0000
18.2200 2746.0000 1.0000
18.2400 2796.0000 1.0000
18.2600 2809.0000 1.0000
18.2800 2722.0000 1.0000
18.3000 2734.0000 1.0000
18.3200 2822.0000 1.0000
18.3400 2734.0000 1.0000
18.3600 2852.0000 1.0000
18.3800 2770.0000 1.0000
18.4000 2778.0000 1.0000
18.4200 2759.0000 1.0000
18.4400 2734.0000 1.0000
18.4600 2733.0000 1.0000
18.4800 2777.0000 1.0000
18.5000 2923.0000 1.0000
18.5200 2685.0000 1.0000
18.5400 2764.0000 1.0000
18.5600 2791.0000 1.0000
18.5800 2795.0000 1.0000
18.6000 2671.0000 1.0000
18.6200 2679.0000 1.0000
18.6400 2663.0000 1.0000
18.6600 2734.0000 1.0000
18.6800 2682.0000 1.0000
18.7000 2776.0000 1.0000
18.7200 2719.0000 1.0000
18.7400 2659.0000 1.0000
18.7600 2704.0000 1.0000
18.7800 2735.0000 1.0000
18.8000 2740.0000 1.0000
18.8200 2773.0000 1.0000
18.8400 2786.0000 1.0000
18.8600 2741.0000 1.0000
18.8800 2621.0000 1.0000
18.9000 2761.0000 1.0000
18.9200 2733.0000 1.0000
18.9400 2715.0000 1.0000
18.9600 2728.0000 1.0000
18.9800 2735.0000 1.0000
19.0000 2624.0000 1.0000
19.0200 2701.0000 1.0000
19.0400 2659.0000 1.0000
19.0600 2643.0000 1.0000
19.0800 2566.0000 1.0000
19.1000 2675.0000 1.0000
19.1200 2755.0000 1.0000
19.1400 2707.0000 1.0000
19.1600 2677.0000 1.0000
19.1800 2620.0000 1.0000
19.2000 2607.0000 1.0000
19.2200 2638.0000 1.0000
19.2400 2650.0000 1.0000
19.2600 2592.0000 1.0000
19.2800 2748.0000 1.0000
19.3000 2631.0000 1.0000
19.3200 2670.0000 1.0000
19.3400 2676.0000 1.0000
19.3600 2655.0000 1.0000
19.3800 2658.0000 1.0000
19.4000 2615.0000 1.0000
19.4200 2612.0000 1.0000
19.4400 2729.0000 1.0000
19.4600 2670.0000 1.0000
19.4800 2647.0000 1.0000
19.5000 2670.0000 1.0000
19.5200 2691.0000 1.0000
19.5400 2608.0000 1.0000
19.5600 2636.0000 1.0000
19.5800 2703.0000 1.0000
19.6000 2633.0000 1.0000
19.6200 2606.0000 1.0000
19.6400 2642.0000 1.0000
19.6600 2645.0000 1.0000
19.6800 2573.0000 1.0000
19.7000 2642.0000 1.0000
19.7200 2638.0000 1.0000
19.7400 2688.0000 1.0000
19.7600 2612.0000 1.0000
19.7800 2628.0000 1.0000
19.8000 2708.0000 1.0000
19.8200 2689.0000 1.0000
19.8400 2648.0000 1.0000
19.8600 2640.0000 1.0000
19.8800 2721.0000 1.0000
19.9000 2619.0000 1.0000
19.9200 2656.0000 1.0000
19.9400 2606.0000 1.0000
19.9600 2610.0000 1.0000
19.9800 2679.0000 1.0000
20.0000 2630.0000 1.0000
20.0200 2709.0000 1.0000
20.0400 2630.0000 1.0000
20.0600 2609.0000 1.0000
20.0800 2687.0000 1.0000
20.1000 2633.0000 1.0000
20.1200 2713.0000 1.0000
20.1400 2679.0000 1.0000
20.1600 2615.0000 1.0000
20.1800 2713.0000 1.0000
20.2000 2672.0000 1.0000
20.2200 2686.0000 1.0000
20.2400 2698.0000 1.0000
20.2600 2698.0000 1.0000
20.2800 2666.0000 1.0000
20.3000 2625.0000 1.0000
20.3200 2715.0000 1.0000
20.3400 2686.0000 1.0000
20.3600 2696.0000 1.0000
20.3800 2642.0000 1.0000
20.4000 2674.0000 1.0000
20.4200 2593.0000 1.0000
20.4400 2633.0000 1.0000
20.4600 2624.0000 1.0000
20.4800 2629.0000 1.0000
20.5000 2547.0000 1.0000
20.5200 2544.0000 1.0000
20.5400 2596.0000 1.0000
20.5600 2635.0000 1.0000
20.5800 2572.0000 1.0000
20.6000 2618.0000 1.0000
20.6200 2610.0000 1.0000
20.6400 2508.0000 1.0000
20.6600 2559.0000 1.0000
20.6800 2641.0000 1.0000
20.7000 2652.0000 1.0000
20.7200 2627.0000 1.0000
20.7400 2593.0000 1.0000
20.7600 2661.0000 1.0000
20.7800 2578.0000 1.0000
20.8000 2627.0000 1.0000
20.8200 2625.0000 1.0000
20.8400 2650.0000 1.0000
20.8600 2616.0000 1.0000
20.8800 2570.0000 1.0000
20.9000 2570.0000 1.0000
20.9200 2602.0000 1.0000
20.9400 2621.0000 1.0000
20.9600 2631.0000 1.0000
20.9800 2556.0000 1.0000
21.0000 2558.0000 1.0000
21.0200 2605.0000 1.0000
21.0400 2600.0000 1.0000
21.0600 2571.0000 1.0000
21.0800 2602.0000 1.0000
21.1000 2602.0000 1.0000
21.1200 2653.0000 1.0000
21.1400 2752.0000 1.0000
21.1600 2660.0000 1.0000
21.1800 2628.0000 1.0000
21.2000 2634.0000 1.0000
21.2200 2569.0000 1.0000
21.2400 2587.0000 1.0000
21.2600 2604.0000 1.0000
21.2800 2572.0000 1.0000
21.3000 2488.0000 1.0000
21.3200 2578.0000 1.0000
21.3400 2598.0000 1.0000
21.3600 2575.0000 1.0000
21.3800 2567.0000 1.0000
21.4000 2539.0000 1.0000
21.4200 2607.0000 1.0000
21.4400 2568.0000 1.0000
21.4600 2671.0000 1.0000
21.4800 2600.0000 1.0000
21.5000 2576.0000 1.0000
21.5200 2548.0000 1.0000
21.5400 2573.0000 1.0000
21.5600 2575.0000 1.0000
21.5800 2581.0000 1.0000
21.6000 2580.0000 1.0000
21.6200 2621.0000 1.0000
21.6400 2599.0000 1.0000
21.6600 2637.0000 1.0000
21.6800 2530.0000 1.0000
21.7000 2653.0000 1.0000
21.7200 2581.0000 1.0000
21.7400 2619.0000 1.0000
21.7600 2647.0000 1.0000
21.7800 2611.0000 1.0000
21.8000 2586.0000 1.0000
21.8200 2636.0000 1.0000
21.8400 2556.0000 1.0000
21.8600 2629.0000 1.0000
21.8800 2567.0000 1.0000
21.9000 2494.0000 1.0000
21.9200 2614.0000 1.0000
21.9400 2570.0000 1.0000
21.9600 2636.0000 1.0000
21.9800 2732.0000 1.0000
22.0000 2594.0000 1.0000
22.0200 2549.0000 1.0000
22.0400 2570.0000 1.0000
22.0600 2567.0000 1.0000
22.0800 2569.0000 1.0000
22.1000 2584.0000 1.0000
22.1200 2609.0000 1.0000
22.1400 2656.0000 1.0000
22.1600 2679.0000 1.0000
22.1800 2647.0000 1.0000
22.2000 2582.0000 1.0000
22.2200 2578.0000 1.0000
22.2400 2598.0000 1.0000
22.2600 2650.0000 1.0000
22.2800 2706.0000 1.0000
22.3000 2643.0000 1.0000
22.3200 2649.0000 1.0000
22.3400 2677.0000 1.0000
22.3600 2660.0000 1.0000
22.3800 2651.0000 1.0000
22.4000 2731.0000 1.0000
22.4200 2765.0000 1.0000
22.4400 2686.0000 1.0000
22.4600 2699.0000 1.0000
22.4800 2821.0000 1.0000
22.5000 2774.0000 1.0000
22.5200 2728.0000 1.0000
22.5400 2737.0000 1.0000
22.5600 2755.0000 1.0000
22.5800 2712.0000 1.0000
22.6000 2699.0000 1.0000
22.6200 2688.0000 1.0000
22.6400 2681.0000 1.0000
22.6600 2715.0000 1.0000
22.6800 2806.0000 1.0000
22.7000 2580.0000 1.0000
22.7200 2683.0000 1.0000
22.7400 2712.0000 1.0000
22.7600 2624.0000 1.0000
22.7800 2639.0000 1.0000
22.8000 2667.0000 1.0000
22.8200 2703.0000 1.0000
22.8400 2656.0000 1.0000
22.8600 2709.0000 1.0000
22.8800 2686.0000 1.0000
22.9000 2563.0000 1.0000
22.9200 2767.0000 1.0000
22.9400 2625.0000 1.0000
22.9600 2714.0000 1.0000
22.9800 2811.0000 1.0000
23.0000 2769.0000 1.0000
23.0200 2774.0000 1.0000
23.0400 2754.0000 1.0000
23.0600 2679.0000 1.0000
23.0800 2753.0000 1.0000
23.1000 2728.0000 1.0000
23.1200 2761.0000 1.0000
23.1400 2783.0000 1.0000
23.1600 2706.0000 1.0000
23.1800 2656.0000 1.0000
23.2000 2742.0000 1.0000
23.2200 2689.0000 1.0000
23.2400 2804.0000 1.0000
23.2600 2744.0000 1.0000
23.2800 2660.0000 1.0000
23.3000 2657.0000 1.0000
23.3200 2712.0000 1.0000
23.3400 2720.0000 1.0000
23.3600 2709.0000 1.0000
23.3800 2784.0000 1.0000
23.4000 2754.0000 1.0000
23.4200 2726.0000 1.0000
23.4400 2742.0000 1.0000
23.4600 2727.0000 1.0000
23.4800 2695.0000 1.0000
23.5000 2796.0000 1.0000
23.5200 2818.0000 1.0000
23.5400 2763.0000 1.0000
23.5600 2825.0000 1.0000
23.5800 2789.0000 1.0000
23.6000 2857.0000 1.0000
23.6200 2804.0000 1.0000
23.6400 2763.0000 1.0000
23.6600 2780.0000 1.0000
23.6800 2855.0000 1.0000
23.7000 2861.0000 1.0000
23.7200 2882.0000 1.0000
23.7400 2830.0000 1.0000
23.7600 2983.0000 1.0000
23.7800 2951.0000 1.0000
23.8000 3006.0000 1.0000
23.8200 3028.0000 1.0000
23.8400 2946.0000 1.0000
23.8600 3057.0000 1.0000
23.8800 3163.0000 1.0000
23.9000 3012.0000 1.0000
23.9200 3196.0000 1.0000
23.9400 3215.0000 1.0000
23.9600 3191.0000 1.0000
23.9800 3341.0000 1.0000
24.0000 3211.0000 1.0000
24.0200 3290.0000 1.0000
24.0400 3333.0000 1.0000
24.0600 3415.0000 1.0000
24.0800 3439.0000 1.0000
24.1000 3439.0000 1.0000
24.1200 3578.0000 1.0000
24.1400 3617.0000 1.0000
24.1600 3620.0000 1.0000
24.1800 3741.0000 1.0000
24.2000 3648.0000 1.0000
24.2200 3684.0000 1.0000
24.2400 3803.0000 1.0000
24.2600 3746.0000 1.0000
24.2800 3954.0000 1.0000
24.3000 4206.0000 1.0000
24.3200 4095.0000 1.0000
24.3400 4168.0000 1.0000
24.3600 4220.0000 1.0000
24.3800 4401.0000 1.0000
24.4000 4467.0000 1.0000
24.4200 4642.0000 1.0000
24.4400 4773.0000 1.0000
24.4600 4947.0000 1.0000
24.4800 5205.0000 1.0000
24.5000 5324.0000 1.0000
24.5200 5546.0000 1.0000
24.5400 5773.0000 1.0000
24.5600 6063.0000 1.0000
24.5800 6526.0000 1.0000
24.6000 6773.0000 1.0000
24.6200 7152.0000 1.0000
24.6400 7676.0000 1.0000
24.6600 8097.0000 1.0000
24.6800 8698.0000 1.0000
24.7000 9329.0000 1.0000
24.7200 10117.0000 1.0000
24.7400 10509.0000 1.0000
24.7600 11272.0000 1.0000
24.7800 12177.0000 1.0000
24.8000 12822.0000 1.0000
24.8200 13706.0000 1.0000
24.8400 14554.0000 1.0000
24.8600 15587.0000 1.0000
24.8800 16408.0000 1.0000
24.9000 17256.0000 1.0000
24.9200 17793.0000 1.0000
24.9400 18370.0000 1.0000
24.9600 18856.0000 1.0000
24.9800 19032.0000 1.0000
25.0000 19364.0000 1.0000
25.0200 19203.0000 1.0000
25.0400 19291.0000 1.0000
25.0600 18918.0000 1.0000
25.0800 18450.0000 1.0000
25.1000 18283.0000 1.0000
25.1200 17403.0000 1.0000
25.1400 16751.0000 1.0000
25.1600 16304.0000 1.0000
25.1800 15786.0000 1.0000
25.2000 15341.0000 1.0000
25.2200 14647.0000 1.0000
25.2400 14032.0000 1.0000
25.2600 13486.0000 1.0000
25.2800 13111.0000 1.0000
25.3000 12412.0000 1.0000
25.3200 11988.0000 1.0000
25.3400 11734.0000 1.0000
25.3600 11384.0000 1.0000
25.3800 10960.0000 1.0000
25.4000 10520.0000 1.0000
25.4200 10414.0000 1.0000
25.4400 10183.0000 1.0000
25.4600 9733.0000 1.0000
25.4800 9327.0000 1.0000
25.5000 9332.0000 1.0000
25.5200 8951.0000 1.0000
25.5400 8715.0000 1.0000
25.5600 8484.0000 1.0000
25.5800 8237.0000 1.0000
25.6000 8158.0000 1.0000
25.6200 7907.0000 1.0000
25.6400 7664.0000 1.0000
25.6600 7637.0000 1.0000
25.6800 7618.0000 1.0000
25.7000 7404.0000 1.0000
25.7200 7331.0000 1.0000
25.7400 7435.0000 1.0000
25.7600 7086.0000 1.0000
25.7800 7106.0000 1.0000
25.8000 6853.0000 1.0000
25.8200 6958.0000 1.0000
25.8400 6830.0000 1.0000
25.8600 6855.0000 1.0000
25.8800 6729.0000 1.0000
25.9000 6622.0000 1.0000
25.9200 6624.0000 1.0000
25.9400 6373.0000 1.0000
25.9600 6527.0000 1.0000
25.9800 6462.0000 1.0000
26.0000 6667.0000 1.0000
26.0200 6546.0000 1.0000
26.0400 6448.0000 1.0000
26.0600 6447.0000 1.0000
26.0800 6438.0000 1.0000
26.1000 6408.0000 1.0000
26.1200 6455.0000 1.0000
26.1400 6492.0000 1.0000
26.1600 6461.0000 1.0000
26.1800 6636.0000 1.0000
26.2000 6710.0000 1.0000
26.2200 6675.0000 1.0000
26.2400 6777.0000 1.0000
26.2600 7011.0000 1.0000
26.2800 7095.0000 1.0000
26.3000 7123.0000 1.0000
26.3200 7426.0000 1.0000
26.3400 7559.0000 1.0000
26.3600 8106.0000 1.0000
26.3800 8511.0000 1.0000
26.4000 9053.0000 1.0000
26.4200 9435.0000 1.0000
26.4400 10221.0000 1.0000
26.4600 10941.0000 1.0000
26.4800 11853.0000 1.0000
26.5000 13186.0000 1.0000
26.5200 14394.0000 1.0000
26.5400 15811.0000 1.0000
26.5600 17692.0000 1.0000
26.5800 20014.0000 1.0000
26.6000 22014.0000 1.0000
26.6200 23961.0000 1.0000
26.6400 25918.0000 1.0000
26.6600 27392.0000 1.0000
26.6800 28592.0000 1.0000
26.7000 28778.0000 1.0000
26.7200 27759.0000 1.0000
26.7400 26614.0000 1.0000
26.7600 25073.0000 1.0000
26.7800 23465.0000 1.0000
26.8000 21497.0000 1.0000
26.8200 19910.0000 1.0000
26.8400 18289.0000 1.0000
26.8600 17059.0000 1.0000
26.8800 15758.0000 1.0000
26.9000 15047.0000 1.0000
26.9200 14043.0000 1.0000
26.9400 13597.0000 1.0000
26.9600 12905.0000 1.0000
26.9800 12430.0000 1.0000
27.0000 11984.0000 1.0000
27.0200 11447.0000 1.0000
27.0400 11332.0000 1.0000
27.0600 11118.0000 1.0000
27.0800 10452.0000 1.0000
27.1000 10299.0000 1.0000
27.1200 10153.0000 1.0000
27.1400 9722.0000 1.0000
27.1600 9737.0000 1.0000
27.1800 9501.0000 1.0000
27.2000 9213.0000 1.0000
27.2200 9250.0000 1.0000
27.2400 9032.0000 1.0000
27.2600 8965.0000 1.0000
27.2800 8995.0000 1.0000
27.3000 8928.0000 1.0000
27.3200 9017.0000 1.0000
27.3400 8804.0000 1.0000
27.3600 8842.0000 1.0000
27.3800 8889.0000 1.0000
27.4000 8793.0000 1.0000
27.4200 8653.0000 1.0000
27.4400 8756.0000 1.0000
27.4600 8870.0000 1.0000
27.4800 8794.0000 1.0000
27.5000 8771.0000 1.0000
27.5200 8818.0000 1.0000
27.5400 8919.0000 1.0000
27.5600 8995.0000 1.0000
27.5800 9056.0000 1.0000
27.6000 9134.0000 1.0000
27.6200 9049.0000 1.0000
27.6400 9051.0000 1.0000
27.6600 9236.0000 1.0000
27.6800 9428.0000 1.0000
27.7000 9499.0000 1.0000
27.7200 9770.0000 1.0000
27.7400 9805.0000 1.0000
27.7600 9987.0000 1.0000
27.7800 10165.0000 1.0000
27.8000 10331.0000 1.0000
27.8200 10662.0000 1.0000
27.8400 10875.0000 1.0000
27.8600 11099.0000 1.0000
27.8800 11480.0000 1.0000
27.9000 11813.0000 1.0000
27.9200 12269.0000 1.0000
27.9400 12935.0000 1.0000
27.9600 13258.0000 1.0000
27.9800 14094.0000 1.0000
28.0000 14785.0000 1.0000
28.0200 15390.0000 1.0000
28.0400 16390.0000 1.0000
28.0600 17176.0000 1.0000
28.0800 17995.0000 1.0000
28.1000 19340.0000 1.0000
28.1200 20371.0000 1.0000
28.1400 21771.0000 1.0000
28.1600 23016.0000 1.0000
28.1800 24132.0000 1.0000
28.2000 25616.0000 1.0000
28.2200 26608.0000 1.0000
28.2400 28088.0000 1.0000
28.2600 29239.0000 1.0000
28.2800 30114.0000 1.0000
28.3000 30971.0000 1.0000
28.3200 31473.0000 1.0000
28.3400 32521.0000 1.0000
28.3600 32562.0000 1.0000
28.3800 32449.0000 1.0000
28.4000 32365.0000 1.0000
28.4200 31873.0000 1.0000
28.4400 31321.0000 1.0000
28.4600 30742.0000 1.0000
28.4800 29651.0000 1.0000
28.5000 28491.0000 1.0000
28.5200 27518.0000 1.0000
28.5400 26327.0000 1.0000
28.5600 25156.0000 1.0000
28.5800 23944.0000 1.0000
28.6000 22828.0000 1.0000
28.6200 22065.0000 1.0000
28.6400 20966.0000 1.0000
28.6600 19806.0000 1.0000
28.6800 19017.0000 1.0000
28.7000 17928.0000 1.0000
28.7200 17057.0000 1.0000
28.7400 16264.0000 1.0000
28.7600 15496.0000 1.0000
28.7800 14912.0000 1.0000
28.8000 14402.0000 1.0000
28.8200 13778.0000 1.0000
28.8400 13180.0000 1.0000
28.8600 12621.0000 1.0000
28.8800 12318.0000 1.0000
28.9000 12049.0000 1.0000
28.9200 11207.0000 1.0000
28.9400 10922.0000 1.0000
28.9600 10596.0000 1.0000
28.9800 10184.0000 1.0000
29.0000 10044.0000 1.0000
29.0200 9719.0000 1.0000
29.0400 9348.0000 1.0000
29.0600 9253.0000 1.0000
29.0800 8837.0000 1.0000
29.1000 8655.0000 1.0000
29.1200 8264.0000 1.0000
29.1400 8101.0000 1.0000
29.1600 8013.0000 1.0000
29.1800 7743.0000 1.0000
29.2000 7659.0000 1.0000
29.2200 7469.0000 1.0000
29.2400 7254.0000 1.0000
29.2600 6962.0000 1.0000
29.2800 6801.0000 1.0000
29.3000 6823.0000 1.0000
29.3200 6645.0000 1.0000
29.3400 6539.0000 1.0000
29.3600 6369.0000 1.0000
29.3800 6389.0000 1.0000
29.4000 6201.0000 1.0000
29.4200 6133.0000 1.0000
29.4400 5903.0000 1.0000
29.4600 5819.0000 1.0000
29.4800 5793.0000 1.0000
29.5000 5642.0000 1.0000
29.5200 5475.0000 1.0000
29.5400 5489.0000 1.0000
29.5600 5408.0000 1.0000
29.5800 5366.0000 1.0000
29.6000 5324.0000 1.0000
29.6200 5235.0000 1.0000
29.6400 5076.0000 1.0000
29.6600 4983.0000 1.0000
29.6800 5013.0000 1.0000
29.7000 4930.0000 1.0000
29.7200 4830.0000 1.0000
29.7400 4735.0000 1.0000
29.7600 4716.0000 1.0000
29.7800 4689.0000 1.0000
29.8000 4734.0000 1.0000
29.8200 4583.0000 1.0000
29.8400 4467.0000 1.0000
29.8600 4560.0000 1.0000
29.8800 4426.0000 1.0000
29.9000 4325.0000 1.0000
29.9200 4341.0000 1.0000
29.9400 4202.0000 1.0000
29.9600 4216.0000 1.0000
29.9800 4231.0000 1.0000
30.0000 4175.0000 1.0000
30.0200 4115.0000 1.0000
30.0400 4152.0000 1.0000
30.0600 4098.0000 1.0000
30.0800 4044.0000 1.0000
30.1000 4027.0000 1.0000
30.1200 4057.0000 1.0000
30.1400 4085.0000 1.0000
30.1600 3860.0000 1.0000
30.1800 3888.0000 1.0000
30.2000 3689.0000 1.0000
30.2200 3727.0000 1.0000
30.2400 3788.0000 1.0000
30.2600 3711.0000 1.0000
30.2800 3764.0000 1.0000
30.3000 3637.0000 1.0000
30.3200 3693.0000 1.0000
30.3400 3667.0000 1.0000
30.3600 3669.0000 1.0000
30.3800 3653.0000 1.0000
30.4000 3557.0000 1.0000
30.4200 3507.0000 1.0000
30.4400 3530.0000 1.0000
30.4600 3466.0000 1.0000
30.4800 3431.0000 1.0000
30.5000 3405.0000 1.0000
30.5200 3424.0000 1.0000
30.5400 3442.0000 1.0000
30.5600 3423.0000 1.0000
30.5800 3382.0000 1.0000
30.6000 3349.0000 1.0000
30.6200 3341.0000 1.0000
30.6400 3300.0000 1.0000
30.6600 3357.0000 1.0000
30.6800 3251.0000 1.0000
30.7000 3368.0000 1.0000
30.7200 3363.0000 1.0000
30.7400 3230.0000 1.0000
30.7600 3176.0000 1.0000
30.7800 3080.0000 1.0000
30.8000 3097.0000 1.0000
30.8200 3149.0000 1.0000
30.8400 3102.0000 1.0000
30.8600 3140.0000 1.0000
30.8800 3036.0000 1.0000
30.9000 3052.0000 1.0000
30.9200 3070.0000 1.0000
30.9400 3065.0000 1.0000
30.9600 2982.0000 1.0000
30.9800 3023.0000 1.0000
31.0000 3093.0000 1.0000
31.0200 2970.0000 1.0000
31.0400 3003.0000 1.0000
31.0600 2948.0000 1.0000
31.0800 2930.0000 1.0000
31.1000 2901.0000 1.0000
31.1200 2874.0000 1.0000
31.1400 2937.0000 1.0000
31.1600 2888.0000 1.0000
31.1800 2842.0000 1.0000
31.2000 2896.0000 1.0000
31.2200 2924.0000 1.0000
31.2400 2868.0000 1.0000
31.2600 2855.0000 1.0000
31.2800 2849.0000 1.0000
31.3000 2854.0000 1.0000
31.3200 2878.0000 1.0000
31.3400 2819.0000 1.0000
31.3600 2786.0000 1.0000
31.3800 2758.0000 1.0000
31.4000 2841.0000 1.0000
31.4200 2793.0000 1.0000
31.4400 2763.0000 1.0000
31.4600 2805.0000 1.0000
31.4800 2854.0000 1.0000
31.5000 2842.0000 1.0000
31.5200 2832.0000 1.0000
31.5400 2744.0000 1.0000
31.5600 2732.0000 1.0000
31.5800 2803.0000 1.0000
31.6000 2720.0000 1.0000
31.6200 2854.0000 1.0000
31.6400 2800.0000 1.0000
31.6600 2761.0000 1.0000
31.6800 2766.0000 1.0000
31.7000 2792.0000 1.0000
31.7200 2724.0000 1.0000
31.7400 2829.0000 1.0000
31.7600 2870.0000 1.0000
31.7800 2862.0000 1.0000
31.8000 2827.0000 1.0000
31.8200 2789.0000 1.0000
31.8400 2801.0000 1.0000
31.8600 2812.0000 1.0000
31.8800 2685.0000 1.0000
31.9000 2776.0000 1.0000
31.9200 2707.0000 1.0000
31.9400 2685.0000 1.0000
31.9600 2655.0000 1.0000
31.9800 2736.0000 1.0000
32.0000 2675.0000 1.0000
32.0200 2717.0000 1.0000
32.0400 2646.0000 1.0000
32.0600 2664.0000 1.0000
32.0800 2635.0000 1.0000
32.1000 2651.0000 1.0000
32.1200 2667.0000 1.0000
32.1400 2575.0000 1.0000
32.1600 2675.0000 1.0000
32.1800 2592.0000 1.0000
32.2000 2582.0000 1.0000
32.2200 2569.0000 1.0000
32.2400 2621.0000 1.0000
32.2600 2668.0000 1.0000
32.2800 2606.0000 1.0000
32.3000 2606.0000 1.0000
32.3200 2516.0000 1.0000
32.3400 2558.0000 1.0000
32.3600 2567.0000 1.0000
32.3800 2594.0000 1.0000
32.4000 2538.0000 1.0000
32.4200 2577.0000 1.0000
32.4400 2611.0000 1.0000
32.4600 2541.0000 1.0000
32.4800 2535.0000 1.0000
32.5000 2549.0000 1.0000
32.5200 2600.0000 1.0000
32.5400 2520.0000 1.0000
32.5600 2501.0000 1.0000
32.5800 2505.0000 1.0000
32.6000 2612.0000 1.0000
32.6200 2591.0000 1.0000
32.6400 2595.0000 1.0000
32.6600 2540.0000 1.0000
32.6800 2542.0000 1.0000
32.7000 2605.0000 1.0000
32.7200 2537.0000 1.0000
32.7400 2596.0000 1.0000
32.7600 2611.0000 1.0000
32.7800 2602.0000 1.0000
32.8000 2620.0000 1.0000
32.8200 2610.0000 1.0000
32.8400 2483.0000 1.0000
32.8600 2497.0000 1.0000
32.8800 2558.0000 1.0000
32.9000 2572.0000 1.0000
32.9200 2573.0000 1.0000
32.9400 2506.0000 1.0000
32.9600 2462.0000 1.0000
32.9800 2499.0000 1.0000
33.0000 2483.0000 1.0000
33.0200 2461.0000 1.0000
33.0400 2513.0000 1.0000
33.0600 2573.0000 1.0000
33.0800 2503.0000 1.0000
33.1000 2524.0000 1.0000
33.1200 2437.0000 1.0000
33.1400 2470.0000 1.0000
33.1600 2414.0000 1.0000
33.1800 2553.0000 1.0000
33.2000 2458.0000 1.0000
33.2200 2527.0000 1.0000
33.2400 2484.0000 1.0000
33.2600 2377.0000 1.0000
33.2800 2445.0000 1.0000
33.3000 2502.0000 1.0000
33.3200 2375.0000 1.0000
33.3400 2394.0000 1.0000
33.3600 2397.0000 1.0000
33.3800 2455.0000 1.0000
33.4000 2310.0000 1.0000
33.4200 2453.0000 1.0000
33.4400 2433.0000 1.0000
33.4600 2319.0000 1.0000
33.4800 2333.0000 1.0000
33.5000 2381.0000 1.0000
33.5200 2397.0000 1.0000
33.5400 2240.0000 1.0000
33.5600 2297.0000 1.0000
33.5800 2346.0000 1.0000
33.6000 2361.0000 1.0000
33.6200 2336.0000 1.0000
33.6400 2345.0000 1.0000
33.6600 2400.0000 1.0000
33.6800 2277.0000 1.0000
33.7000 2283.0000 1.0000
33.7200 2360.0000 1.0000
33.7400 2349.0000 1.0000
33.7600 2400.0000 1.0000
33.7800 2290.0000 1.0000
33.8000 2282.0000 1.0000
33.8200 2452.0000 1.0000
33.8400 2386.0000 1.0000
33.8600 2212.0000 1.0000
33.8800 2291.0000 1.0000
33.9000 2369.0000 1.0000
33.9200 2302.0000 1.0000
33.9400 2328.0000 1.0000
33.9600 2297.0000 1.0000
33.9800 2378.0000 1.0000
34.0000 2351.0000 1.0000
34.0200 2338.0000 1.0000
34.0400 2365.0000 1.0000
34.0600 2221.0000 1.0000
34.0800 2309.0000 1.0000
34.1000 2274.0000 1.0000
34.1200 2310.0000 1.0000
34.1400 2233.0000 1.0000
34.1600 2289.0000 1.0000
34.1800 2284.0000 1.0000
34.2000 2267.0000 1.0000
34.2200 2326.0000 1.0000
34.2400 2270.0000 1.0000
34.2600 2291.0000 1.0000
34.2800 2291.0000 1.0000
34.3000 2332.0000 1.0000
34.3200 2177.0000 1.0000
34.3400 2305.0000 1.0000
34.3600 2278.0000 1.0000
34.3800 2334.0000 1.0000
34.4000 2310.0000 1.0000
34.4200 2274.0000 1.0000
34.4400 2182.0000 1.0000
34.4600 2316.0000 1.0000
34.4800 2341.0000 1.0000
34.5000 2361.0000 1.0000
34.5200 2231.0000 1.0000
34.5400 2313.0000 1.0000
34.5600 2228.0000 1.0000
34.5800 2305.0000 1.0000
34.6000 2273.0000 1.0000
34.6200 2251.0000 1.0000
34.6400 2252.0000 1.0000
34.6600 2173.0000 1.0000
34.6800 2323.0000 1.0000
34.7000 2305.0000 1.0000
34.7200 2332.0000 1.0000
34.7400 2316.0000 1.0000
34.7600 2369.0000 1.0000
34.7800 2279.0000 1.0000
34.8000 2245.0000 1.0000
34.8200 2350.0000 1.0000
34.8400 2332.0000 1.0000
34.8600 2311.0000 1.0000
34.8800 2312.0000 1.0000
34.9000 2259.0000 1.0000
34.9200 2261.0000 1.0000
34.9400 2329.0000 1.0000
34.9600 2385.0000 1.0000
34.9800 2334.0000 1.0000
35.0000 2273.0000 1.0000
35.0200 2354.0000 1.0000
35.0400 2262.0000 1.0000
35.0600 2427.0000 1.0000
35.0800 2357.0000 1.0000
35.1000 2325.0000 1.0000
35.1200 2308.0000 1.0000
35.1400 2346.0000 1.0000
35.1600 2345.0000 1.0000
35.1800 2384.0000 1.0000
35.2000 2317.0000 1.0000
35.2200 2370.0000 1.0000
35.2400 2379.0000 1.0000
35.2600 2309.0000 1.0000
35.2800 2334.0000 1.0000
35.3000 2437.0000 1.0000
35.3200 2386.0000 1.0000
35.3400 2361.0000 1.0000
35.3600 2524.0000 1.0000
35.3800 2436.0000 1.0000
35.4000 2360.0000 1.0000
35.4200 2397.0000 1.0000
35.4400 2384.0000 1.0000
35.4600 2477.0000 1.0000
35.4800 2409.0000 1.0000
35.5000 2472.0000 1.0000
35.5200 2398.0000 1.0000
35.5400 2433.0000 1.0000
35.5600 2409.0000 1.0000
35.5800 2513.0000 1.0000
35.6000 2506.0000 1.0000
35.6200 2561.0000 1.0000
35.6400 2536.0000 1.0000
35.6600 2561.0000 1.0000
35.6800 2473.0000 1.0000
35.7000 2659.0000 1.0000
35.7200 2665.0000 1.0000
35.7400 2737.0000 1.0000
35.7600 2607.0000 1.0000
35.7800 2693.0000 1.0000
35.8000 2685.0000 1.0000
35.8200 2566.0000 1.0000
35.8400 2699.0000 1.0000
35.8600 2781.0000 1.0000
35.8800 2789.0000 1.0000
35.9000 2749.0000 1.0000
35.9200 2703.0000 1.0000
35.9400 2770.0000 1.0000
35.9600 2839.0000 1.0000
35.9800 2812.0000 1.0000
36.0000 2889.0000 1.0000
36.0200 2992.0000 1.0000
36.0400 3021.0000 1.0000
36.0600 2952.0000 1.0000
36.0800 2993.0000 1.0000
36.1000 3113.0000 1.0000
36.1200 3090.0000 1.0000
36.1400 3223.0000 1.0000
36.1600 3129.0000 1.0000
36.1800 3200.0000 1.0000
36.2000 3243.0000 1.0000
36.2200 3294.0000 1.0000
36.2400 3382.0000 1.0000
36.2600 3393.0000 1.0000
36.2800 3633.0000 1.0000
36.3000 3576.0000 1.0000
36.3200 3627.0000 1.0000
36.3400 3691.0000 1.0000
36.3600 3770.0000 1.0000
36.3800 3860.0000 1.0000
36.4000 3928.0000 1.0000
36.4200 3990.0000 1.0000
36.4400 4078.0000 1.0000
36.4600 4284.0000 1.0000
36.4800 4402.0000 1.0000
36.5000 4451.0000 1.0000
36.5200 4549.0000 1.0000
36.5400 4673.0000 1.0000
36.5600 4734.0000 1.0000
36.5800 4870.0000 1.0000
36.6000 5011.0000 1.0000
36.6200 5196.0000 1.0000
36.6400 5486.0000 1.0000
36.6600 5488.0000 1.0000
36.6800 5618.0000 1.0000
36.7000 5667.0000 1.0000
36.7200 5892.0000 1.0000
36.7400 5944.0000 1.0000
36.7600 6054.0000 1.0000
36.7800 6016.0000 1.0000
36.8000 6216.0000 1.0000
36.8200 6187.0000 1.0000
36.8400 6344.0000 1.0000
36.8600 6276.0000 1.0000
36.8800 6373.0000 1.0000
36.9000 6195.0000 1.0000
36.9200 6415.0000 1.0000
36.9400 6212.0000 1.0000
36.9600 6237.0000 1.0000
36.9800 6109.0000 1.0000
37.0000 6065.0000 1.0000
37.0200 5973.0000 1.0000
37.0400 5814.0000 1.0000
37.0600 5700.0000 1.0000
37.0800 5555.0000 1.0000
37.1000 5624.0000 1.0000
37.1200 5414.0000 1.0000
37.1400 5233.0000 1.0000
37.1600 5085.0000 1.0000
37.1800 4993.0000 1.0000
37.2000 4775.0000 1.0000
37.2200 4778.0000 1.0000
37.2400 4707.0000 1.0000
37.2600 4689.0000 1.0000
37.2800 4542.0000 1.0000
37.3000 4402.0000 1.0000
37.3200 4358.0000 1.0000
37.3400 4192.0000 1.0000
37.3600 4114.0000 1.0000
37.3800 4141.0000 1.0000
37.4000 4067.0000 1.0000
37.4200 3930.0000 1.0000
37.4400 3956.0000 1.0000
37.4600 3849.0000 1.0000
37.4800 3765.0000 1.0000
37.5000 3674.0000 1.0000
37.5200 3694.0000 1.0000
37.5400 3741.0000 1.0000
37.5600 3606.0000 1.0000
37.5800 3480.0000 1.0000
37.6000 3470.0000 1.0000
37.6200 3442.0000 1.0000
37.6400 3388.0000 1.0000
37.6600 3345.0000 1.0000
37.6800 3391.0000 1.0000
37.7000 3281.0000 1.0000
37.7200 3309.0000 1.0000
37.7400 3206.0000 1.0000
37.7600 3146.0000 1.0000
37.7800 3096.0000 1.0000
37.8000 3020.0000 1.0000
37.8200 3138.0000 1.0000
37.8400 2967.0000 1.0000
37.8600 3053.0000 1.0000
37.8800 2923.0000 1.0000
37.9000 2924.0000 1.0000
37.9200 2857.0000 1.0000
37.9400 2913.0000 1.0000
37.9600 2852.0000 1.0000
37.9800 2864.0000 1.0000
38.0000 2835.0000 1.0000
38.0200 2801.0000 1.0000
38.0400 2856.0000 1.0000
38.0600 2794.0000 1.0000
38.0800 2827.0000 1.0000
38.1000 2699.0000 1.0000
38.1200 2757.0000 1.0000
38.1400 2743.0000 1.0000
38.1600 2662.0000 1.0000
38.1800 2641.0000 1.0000
38.2000 2666.0000 1.0000
38.2200 2681.0000 1.0000
38.2400 2507.0000 1.0000
38.2600 2628.0000 1.0000
38.2800 2642.0000 1.0000
38.3000 2619.0000 1.0000
38.3200 2553.0000 1.0000
38.3400 2560.0000 1.0000
38.3600 2512.0000 1.0000
38.3800 2457.0000 1.0000
38.4000 2439.0000 1.0000
38.4200 2561.0000 1.0000
38.4400 2460.0000 1.0000
38.4600 2465.0000 1.0000
38.4800 2487.0000 1.0000
38.5000 2414.0000 1.0000
38.5200 2550.0000 1.0000
38.5400 2430.0000 1.0000
38.5600 2422.0000 1.0000
38.5800 2438.0000 1.0000
38.6000 2451.0000 1.0000
38.6200 2401.0000 1.0000
38.6400 2463.0000 1.0000
38.6600 2393.0000 1.0000
38.6800 2375.0000 1.0000
38.7000 2451.0000 1.0000
38.7200 2422.0000 1.0000
38.7400 2414.0000 1.0000
38.7600 2314.0000 1.0000
38.7800 2294.0000 1.0000
38.8000 2394.0000 1.0000
38.8200 2327.0000 1.0000
38.8400 2386.0000 1.0000
38.8600 2399.0000 1.0000
38.8800 2320.0000 1.0000
38.9000 2341.0000 1.0000
38.9200 2358.0000 1.0000
38.9400 2340.0000 1.0000
38.9600 2387.0000 1.0000
38.9800 2360.0000 1.0000
39.0000 2322.0000 1.0000
39.0200 2240.0000 1.0000
39.0400 2275.0000 1.0000
39.0600 2360.0000 1.0000
39.0800 2446.0000 1.0000
39.1000 2376.0000 1.0000
39.1200 2355.0000 1.0000
39.1400 2334.0000 1.0000
39.1600 2347.0000 1.0000
39.1800 2267.0000 1.0000
39.2000 2346.0000 1.0000
39.2200 2246.0000 1.0000
39.2400 2279.0000 1.0000
39.2600 2292.0000 1.0000
39.2800 2272.0000 1.0000
39.3000 2215.0000 1.0000
39.3200 2271.0000 1.0000
39.3400 2360.0000 1.0000
39.3600 2323.0000 1.0000
39.3800 2277.0000 1.0000
39.4000 2309.0000 1.0000
39.4200 2329.0000 1.0000
39.4400 2284.0000 1.0000
39.4600 2327.0000 1.0000
39.4800 2294.0000 1.0000
39.5000 2280.0000 1.0000
39.5200 2347.0000 1.0000
39.5400 2232.0000 1.0000
39.5600 2199.0000 1.0000
39.5800 2253.0000 1.0000
39.6000 2216.0000 1.0000
39.6200 2212.0000 1.0000
39.6400 2265.0000 1.0000
39.6600 2276.0000 1.0000
39.6800 2282.0000 1.0000
39.7000 2278.0000 1.0000
39.7200 2246.0000 1.0000
39.7400 2170.0000 1.0000
39.7600 2224.0000 1.0000
39.7800 2226.0000 1.0000
39.8000 2204.0000 1.0000
39.8200 2219.0000 1.0000
39.8400 2307.0000 1.0000
39.8600 2259.0000 1.0000
39.8800 2219.0000 1.0000
39.9000 2159.0000 1.0000
39.9200 2109.0000 1.0000
39.9400 2139.0000 1.0000
39.9600 2221.0000 1.0000
39.9800 2203.0000 1.0000
40.0000 2129.0000 1.0000
40.0200 2156.0000 1.0000
40.0400 2159.0000 1.0000
40.0600 2031.0000 1.0000
40.0800 2146.0000 1.0000
40.1000 2141.0000 1.0000
40.1200 2121.0000 1.0000
40.1400 2130.0000 1.0000
40.1600 2140.0000 1.0000
40.1800 2136.0000 1.0000
40.2000 2193.0000 1.0000
40.2200 2097.0000 1.0000
40.2400 2153.0000 1.0000
40.2600 2156.0000 1.0000
40.2800 2119.0000 1.0000
40.3000 2125.0000 1.0000
40.3200 2121.0000 1.0000
40.3400 2107.0000 1.0000
40.3600 2110.0000 1.0000
40.3800 2182.0000 1.0000
40.4000 2126.0000 1.0000
40.4200 2121.0000 1.0000
40.4400 2187.0000 1.0000
40.4600 2191.0000 1.0000
40.4800 2155.0000 1.0000
40.5000 2191.0000 1.0000
40.5200 2097.0000 1.0000
40.5400 2109.0000 1.0000
40.5600 2139.0000 1.0000
40.5800 2197.0000 1.0000
40.6000 2226.0000 1.0000
40.6200 2236.0000 1.0000
40.6400 2195.0000 1.0000
40.6600 2175.0000 1.0000
40.6800 2181.0000 1.0000
40.7000 2126.0000 1.0000
40.7200 2218.0000 1.0000
40.7400 2115.0000 1.0000
40.7600 2155.0000 1.0000
40.7800 2267.0000 1.0000
40.8000 2073.0000 1.0000
40.8200 2202.0000 1.0000
40.8400 2131.0000 1.0000
40.8600 2128.0000 1.0000
40.8800 2012.0000 1.0000
40.9000 2034.0000 1.0000
40.9200 2071.0000 1.0000
40.9400 2170.0000 1.0000
40.9600 2097.0000 1.0000
40.9800 2078.0000 1.0000
41.0000 2125.0000 1.0000
41.0200 2185.0000 1.0000
41.0400 2159.0000 1.0000
41.0600 2181.0000 1.0000
41.0800 2124.0000 1.0000
41.1000 2094.0000 1.0000
41.1200 2165.0000 1.0000
41.1400 2165.0000 1.0000
41.1600 2150.0000 1.0000
41.1800 2202.0000 1.0000
41.2000 2123.0000 1.0000
41.2200 2155.0000 1.0000
41.2400 2121.0000 1.0000
41.2600 2149.0000 1.0000
41.2800 2181.0000 1.0000
41.3000 2162.0000 1.0000
41.3200 2188.0000 1.0000
41.3400 2134.0000 1.0000
41.3600 2120.0000 1.0000
41.3800 2190.0000 1.0000
41.4000 2176.0000 1.0000
41.4200 2190.0000 1.0000
41.4400 2082.0000 1.0000
41.4600 2154.0000 1.0000
41.4800 2156.0000 1.0000
41.5000 2233.0000 1.0000
41.5200 2205.0000 1.0000
41.5400 2194.0000 1.0000
41.5600 2117.0000 1.0000
41.5800 2142.0000 1.0000
41.6000 2234.0000 1.0000
41.6200 2133.0000 1.0000
41.6400 2132.0000 1.0000
41.6600 2144.0000 1.0000
41.6800 2221.0000 1.0000
41.7000 2183.0000 1.0000
41.7200 2180.0000 1.0000
41.7400 2237.0000 1.0000
41.7600 2189.0000 1.0000
41.7800 2144.0000 1.0000
41.8000 2187.0000 1.0000
41.8200 2229.0000 1.0000
41.8400 2148.0000 1.0000
41.8600 2200.0000 1.0000
41.8800 2159.0000 1.0000
41.9000 2274.0000 1.0000
41.9200 2173.0000 1.0000
41.9400 2217.0000 1.0000
41.9600 2230.0000 1.0000
41.9800 2253.0000 1.0000
42.0000 2297.0000 1.0000
42.0200 2268.0000 1.0000
42.0400 2292.0000 1.0000
42.0600 2253.0000 1.0000
42.0800 2328.0000 1.0000
42.1000 2240.0000 1.0000
42.1200 2335.0000 1.0000
42.1400 2271.0000 1.0000
42.1600 2345.0000 1.0000
42.1800 2337.0000 1.0000
42.2000 2420.0000 1.0000
42.2200 2278.0000 1.0000
42.2400 2244.0000 1.0000
42.2600 2314.0000 1.0000
42.2800 2445.0000 1.0000
42.3000 2311.0000 1.0000
42.3200 2323.0000 1.0000
42.3400 2450.0000 1.0000
42.3600 2496.0000 1.0000
42.3800 2428.0000 1.0000
42.4000 2441.0000 1.0000
42.4200 2390.0000 1.0000
42.4400 2461.0000 1.0000
42.4600 2466.0000 1.0000
42.4800 2436.0000 1.0000
42.5000 2388.0000 1.0000
42.5200 2476.0000 1.0000
42.5400 2561.0000 1.0000
42.5600 2649.0000 1.0000
42.5800 2689.0000 1.0000
42.6000 2539.0000 1.0000
42.6200 2546.0000 1.0000
42.6400 2551.0000 1.0000
42.6600 2614.0000 1.0000
42.6800 2595.0000 1.0000
42.7000 2659.0000 1.0000
42.7200 2661.0000 1.0000
42.7400 2737.0000 1.0000
42.7600 2764.0000 1.0000
42.7800 2685.0000 1.0000
42.8000 2791.0000 1.0000
42.8200 2823.0000 1.0000
42.8400 2793.0000 1.0000
42.8600 2789.0000 1.0000
42.8800 2834.0000 1.0000
42.9000 2875.0000 1.0000
42.9200 2937.0000 1.0000
42.9400 2977.0000 1.0000
42.9600 2977.0000 1.0000
42.9800 3089.0000 1.0000
43.0000 3149.0000 1.0000
43.0200 3103.0000 1.0000
43.0400 3144.0000 1.0000
43.0600 3299.0000 1.0000
43.0800 3215.0000 1.0000
43.1000 3301.0000 1.0000
43.1200 3420.0000 1.0000
43.1400 3520.0000 1.0000
43.1600 3616.0000 1.0000
43.1800 3564.0000 1.0000
43.2000 3763.0000 1.0000
43.2200 3785.0000 1.0000
43.2400 3870.0000 1.0000
43.2600 3911.0000 1.0000
43.2800 4132.0000 1.0000
43.3000 4183.0000 1.0000
43.3200 4384.0000 1.0000
43.3400 4441.0000 1.0000
43.3600 4605.0000 1.0000
43.3800 4834.0000 1.0000
43.4000 5026.0000 1.0000
43.4200 5099.0000 1.0000
43.4400 5335.0000 1.0000
43.4600 5630.0000 1.0000
43.4800 5867.0000 1.0000
43.5000 5920.0000 1.0000
43.5200 6230.0000 1.0000
43.5400 6651.0000 1.0000
43.5600 6842.0000 1.0000
43.5800 7071.0000 1.0000
43.6000 7617.0000 1.0000
43.6200 7967.0000 1.0000
43.6400 8310.0000 1.0000
43.6600 8754.0000 1.0000
43.6800 9076.0000 1.0000
43.7000 9588.0000 1.0000
43.7200 9943.0000 1.0000
43.7400 10246.0000 1.0000
43.7600 10715.0000 1.0000
43.7800 11177.0000 1.0000
43.8000 11539.0000 1.0000
43.8200 11891.0000 1.0000
43.8400 12288.0000 1.0000
43.8600 12479.0000 1.0000
43.8800 12595.0000 1.0000
43.9000 13023.0000 1.0000
43.9200 12931.0000 1.0000
43.9400 13087.0000 1.0000
43.9600 13090.0000 1.0000
43.9800 12986.0000 1.0000
44.0000 13145.0000 1.0000
44.0200 12956.0000 1.0000
44.0400 12894.0000 1.0000
44.0600 12729.0000 1.0000
44.0800 12317.0000 1.0000
44.1000 12209.0000 1.0000
44.1200 11794.0000 1.0000
44.1400 11718.0000 1.0000
44.1600 11173.0000 1.0000
44.1800 10943.0000 1.0000
44.2000 10838.0000 1.0000
44.2200 10172.0000 1.0000
44.2400 9911.0000 1.0000
44.2600 9681.0000 1.0000
44.2800 9409.0000 1.0000
44.3000 9239.0000 1.0000
44.3200 8789.0000 1.0000
44.3400 8551.0000 1.0000
44.3600 8407.0000 1.0000
44.3800 8156.0000 1.0000
44.4000 7932.0000 1.0000
44.4200 7755.0000 1.0000
44.4400 7527.0000 1.0000
44.4600 7463.0000 1.0000
44.4800 7111.0000 1.0000
44.5000 7217.0000 1.0000
44.5200 6845.0000 1.0000
44.5400 6800.0000 1.0000
44.5600 6692.0000 1.0000
44.5800 6659.0000 1.0000
44.6000 6493.0000 1.0000
44.6200 6163.0000 1.0000
44.6400 6183.0000 1.0000
44.6600 6037.0000 1.0000
44.6800 5950.0000 1.0000
44.7000 5838.0000 1.0000
44.7200 5762.0000 1.0000
44.7400 5566.0000 1.0000
44.7600 5476.0000 1.0000
44.7800 5459.0000 1.0000
44.8000 5533.0000 1.0000
44.8200 5356.0000 1.0000
44.8400 5391.0000 1.0000
44.8600 5177.0000 1.0000
44.8800 5106.0000 1.0000
44.9000 5090.0000 1.0000
44.9200 5004.0000 1.0000
44.9400 5070.0000 1.0000
44.9600 4874.0000 1.0000
44.9800 4883.0000 1.0000
45.0000 4777.0000 1.0000
45.0200 4753.0000 1.0000
45.0400 4681.0000 1.0000
45.0600 4612.0000 1.0000
45.0800 4691.0000 1.0000
45.1000 4515.0000 1.0000
45.1200 4447.0000 1.0000
45.1400 4404.0000 1.0000
45.1600 4433.0000 1.0000
45.1800 4433.0000 1.0000
45.2000 4326.0000 1.0000
45.2200 4344.0000 1.0000
45.2400 4169.0000 1.0000
45.2600 4218.0000 1.0000
45.2800 4246.0000 1.0000
45.3000 4214.0000 1.0000
45.3200 4249.0000 1.0000
45.3400 4106.0000 1.0000
45.3600 4096.0000 1.0000
45.3800 4138.0000 1.0000
45.4000 4027.0000 1.0000
45.4200 4015.0000 1.0000
45.4400 3957.0000 1.0000
45.4600 4068.0000 1.0000
45.4800 4029.0000 1.0000
45.5000 3976.0000 1.0000
45.5200 3994.0000 1.0000
45.5400 3951.0000 1.0000
45.5600 3983.0000 1.0000
45.5800 4070.0000 1.0000
45.6000 3822.0000 1.0000
45.6200 3884.0000 1.0000
45.6400 4025.0000 1.0000
45.6600 3845.0000 1.0000
45.6800 3833.0000 1.0000
45.7000 3941.0000 1.0000
45.7200 3798.0000 1.0000
45.7400 3830.0000 1.0000
45.7600 3850.0000 1.0000
45.7800 3810.0000 1.0000
45.8000 3725.0000 1.0000
45.8200 3650.0000 1.0000
45.8400 3666.0000 1.0000
45.8600 3672.0000 1.0000
45.8800 3755.0000 1.0000
45.9000 3709.0000 1.0000
45.9200 3752.0000 1.0000
45.9400 3679.0000 1.0000
45.9600 3790.0000 1.0000
45.9800 3662.0000 1.0000
46.0000 3620.0000 1.0000
46.0200 3698.0000 1.0000
46.0400 3687.0000 1.0000
46.0600 3727.0000 1.0000
46.0800 3647.0000 1.0000
46.1000 3616.0000 1.0000
46.1200 3706.0000 1.0000
46.1400 3570.0000 1.0000
46.1600 3614.0000 1.0000
46.1800 3628.0000 1.0000
46.2000 3607.0000 1.0000
46.2200 3672.0000 1.0000
46.2400 3606.0000 1.0000
46.2600 3649.0000 1.0000
46.2800 3702.0000 1.0000
46.3000 3682.0000 1.0000
46.3200 3664.0000 1.0000
46.3400 3653.0000 1.0000
46.3600 3725.0000 1.0000
46.3800 3769.0000 1.0000
46.4000 3602.0000 1.0000
46.4200 3611.0000 1.0000
46.4400 3742.0000 1.0000
46.4600 3759.0000 1.0000
46.4800 3757.0000 1.0000
46.5000 3624.0000 1.0000
46.5200 3763.0000 1.0000
46.5400 3789.0000 1.0000
46.5600 3759.0000 1.0000
46.5800 3820.0000 1.0000
46.6000 3757.0000 1.0000
46.6200 3826.0000 1.0000
46.6400 3845.0000 1.0000
46.6600 3915.0000 1.0000
46.6800 3868.0000 1.0000
46.7000 3893.0000 1.0000
46.7200 3817.0000 1.0000
46.7400 3932.0000 1.0000
46.7600 3872.0000 1.0000
46.7800 3946.0000 1.0000
46.8000 3990.0000 1.0000
46.8200 4065.0000 1.0000
46.8400 4032.0000 1.0000
46.8600 4022.0000 1.0000
46.8800 4064.0000 1.0000
46.9000 4121.0000 1.0000
46.9200 4115.0000 1.0000
46.9400 4244.0000 1.0000
46.9600 4291.0000 1.0000
46.9800 4349.0000 1.0000
47.0000 4196.0000 1.0000
47.0200 4444.0000 1.0000
47.0400 4383.0000 1.0000
47.0600 4464.0000 1.0000
47.0800 4471.0000 1.0000
47.1000 4640.0000 1.0000
47.1200 4558.0000 1.0000
47.1400 4685.0000 1.0000
47.1600 4656.0000 1.0000
47.1800 4776.0000 1.0000
47.2000 4890.0000 1.0000
47.2200 4826.0000 1.0000
47.2400 5099.0000 1.0000
47.2600 5162.0000 1.0000
47.2800 5217.0000 1.0000
47.3000 5220.0000 1.0000
47.3200 5339.0000 1.0000
47.3400 5459.0000 1.0000
47.3600 5492.0000 1.0000
47.3800 5653.0000 1.0000
47.4000 5835.0000 1.0000
47.4200 5976.0000 1.0000
47.4400 5956.0000 1.0000
47.4600 6188.0000 1.0000
47.4800 6282.0000 1.0000
47.5000 6325.0000 1.0000
47.5200 6488.0000 1.0000
47.5400 6490.0000 1.0000
47.5600 6609.0000 1.0000
47.5800 6951.0000 1.0000
47.6000 6920.0000 1.0000
47.6200 7085.0000 1.0000
47.6400 7182.0000 1.0000
47.6600 7470.0000 1.0000
47.6800 7593.0000 1.0000
47.7000 7510.0000 1.0000
47.7200 7568.0000 1.0000
47.7400 7820.0000 1.0000
47.7600 8159.0000 1.0000
47.7800 8496.0000 1.0000
47.8000 8476.0000 1.0000
47.8200 8896.0000 1.0000
47.8400 9011.0000 1.0000
47.8600 9219.0000 1.0000
47.8800 9566.0000 1.0000
47.9000 9709.0000 1.0000
47.9200 10092.0000 1.0000
47.9400 10421.0000 1.0000
47.9600 10497.0000 1.0000
47.9800 10754.0000 1.0000
48.0000 11164.0000 1.0000
48.0200 11300.0000 1.0000
48.0400 11426.0000 1.0000
48.0600 11537.0000 1.0000
48.0800 11634.0000 1.0000
48.1000 11885.0000 1.0000
48.1200 11947.0000 1.0000
48.1400 11797.0000 1.0000
48.1600 11935.0000 1.0000
48.1800 11803.0000 1.0000
48.2000 11620.0000 1.0000
48.2200 11554.0000 1.0000
48.2400 11248.0000 1.0000
48.2600 11049.0000 1.0000
48.2800 10649.0000 1.0000
48.3000 10602.0000 1.0000
48.3200 10433.0000 1.0000
48.3400 10066.0000 1.0000
48.3600 9930.0000 1.0000
48.3800 9670.0000 1.0000
48.4000 9358.0000 1.0000
48.4200 9051.0000 1.0000
48.4400 8930.0000 1.0000
48.4600 8635.0000 1.0000
48.4800 8477.0000 1.0000
48.5000 8097.0000 1.0000
48.5200 8090.0000 1.0000
48.5400 7696.0000 1.0000
48.5600 7527.0000 1.0000
48.5800 7346.0000 1.0000
48.6000 7277.0000 1.0000
48.6200 7082.0000 1.0000
48.6400 6850.0000 1.0000
48.6600 6764.0000 1.0000
48.6800 6610.0000 1.0000
48.7000 6250.0000 1.0000
48.7200 6224.0000 1.0000
48.7400 6223.0000 1.0000
48.7600 6067.0000 1.0000
48.7800 5823.0000 1.0000
48.8000 5806.0000 1.0000
48.8200 5745.0000 1.0000
48.8400 5770.0000 1.0000
48.8600 5577.0000 1.0000
48.8800 5333.0000 1.0000
48.9000 5308.0000 1.0000
48.9200 5240.0000 1.0000
48.9400 5086.0000 1.0000
48.9600 5052.0000 1.0000
48.9800 5028.0000 1.0000
49.0000 4768.0000 1.0000
49.0200 4674.0000 1.0000
49.0400 4665.0000 1.0000
49.0600 4630.0000 1.0000
49.0800 4672.0000 1.0000
49.1000 4504.0000 1.0000
49.1200 4477.0000 1.0000
49.1400 4369.0000 1.0000
49.1600 4301.0000 1.0000
49.1800 4296.0000 1.0000
49.2000 4370.0000 1.0000
49.2200 4151.0000 1.0000
49.2400 4117.0000 1.0000
49.2600 4177.0000 1.0000
49.2800 4022.0000 1.0000
49.3000 4018.0000 1.0000
49.3200 4075.0000 1.0000
49.3400 3977.0000 1.0000
49.3600 3981.0000 1.0000
49.3800 3841.0000 1.0000
49.4000 3850.0000 1.0000
49.4200 3779.0000 1.0000
49.4400 3742.0000 1.0000
49.4600 3666.0000 1.0000
49.4800 3719.0000 1.0000
49.5000 3635.0000 1.0000
49.5200 3681.0000 1.0000
49.5400 3583.0000 1.0000
49.5600 3625.0000 1.0000
49.5800 3555.0000 1.0000
49.6000 3650.0000 1.0000
49.6200 3529.0000 1.0000
49.6400 3430.0000 1.0000
49.6600 3498.0000 1.0000
49.6800 3473.0000 1.0000
49.7000 3403.0000 1.0000
49.7200 3479.0000 1.0000
49.7400 3343.0000 1.0000
49.7600 3357.0000 1.0000
49.7800 3314.0000 1.0000
49.8000 3389.0000 1.0000
49.8200 3366.0000 1.0000
49.8400 3288.0000 1.0000
49.8600 3344.0000 1.0000
49.8800 3213.0000 1.0000
49.9000 3264.0000 1.0000
49.9200 3334.0000 1.0000
49.9400 3253.0000 1.0000
49.9600 3286.0000 1.0000
49.9800 3228.0000 1.0000
50.0000 3191.0000 1.0000
50.0200 3186.0000 1.0000
50.0400 3260.0000 1.0000
50.0600 3254.0000 1.0000
50.0800 3221.0000 1.0000
50.1000 3181.0000 1.0000
50.1200 3232.0000 1.0000
50.1400 3232.0000 1.0000
50.1600 3229.0000 1.0000
50.1800 3277.0000 1.0000
50.2000 3255.0000 1.0000
50.2200 3199.0000 1.0000
50.2400 3181.0000 1.0000
50.2600 3085.0000 1.0000
50.2800 3211.0000 1.0000
50.3000 3137.0000 1.0000
50.3200 3201.0000 1.0000
50.3400 3203.0000 1.0000
50.3600 3308.0000 1.0000
50.3800 3214.0000 1.0000
50.4000 3185.0000 1.0000
50.4200 3235.0000 1.0000
50.4400 3173.0000 1.0000
50.4600 3278.0000 1.0000
50.4800 3302.0000 1.0000
50.5000 3319.0000 1.0000
50.5200 3281.0000 1.0000
50.5400 3277.0000 1.0000
50.5600 3341.0000 1.0000
50.5800 3362.0000 1.0000
50.6000 3430.0000 1.0000
50.6200 3482.0000 1.0000
50.6400 3320.0000 1.0000
50.6600 3446.0000 1.0000
50.6800 3491.0000 1.0000
50.7000 3541.0000 1.0000
50.7200 3562.0000 1.0000
50.7400 3617.0000 1.0000
50.7600 3683.0000 1.0000
50.7800 3621.0000 1.0000
50.8000 3709.0000 1.0000
50.8200 3843.0000 1.0000
50.8400 3849.0000 1.0000
50.8600 3865.0000 1.0000
50.8800 3926.0000 1.0000
50.9000 3957.0000 1.0000
50.9200 4061.0000 1.0000
50.9400 4010.0000 1.0000
50.9600 4129.0000 1.0000
50.9800 4339.0000 1.0000
51.0000 4214.0000 1.0000
51.0200 4386.0000 1.0000
51.0400 4360.0000 1.0000
51.0600 4440.0000 1.0000
51.0800 4513.0000 1.0000
51.1000 4497.0000 1.0000
51.1200 4573.0000 1.0000
51.1400 4681.0000 1.0000
51.1600 4818.0000 1.0000
51.1800 4561.0000 1.0000
51.2000 4726.0000 1.0000
51.2200 4777.0000 1.0000
51.2400 4900.0000 1.0000
51.2600 4781.0000 1.0000
51.2800 4782.0000 1.0000
51.3000 4945.0000 1.0000
51.3200 4856.0000 1.0000
51.3400 4899.0000 1.0000
51.3600 5158.0000 1.0000
51.3800 5204.0000 1.0000
51.4000 5087.0000 1.0000
51.4200 5089.0000 1.0000
51.4400 5242.0000 1.0000
51.4600 5308.0000 1.0000
51.4800 5260.0000 1.0000
51.5000 5352.0000 1.0000
51.5200 5489.0000 1.0000
51.5400 5567.0000 1.0000
51.5600 5746.0000 1.0000
51.5800 5646.0000 1.0000
51.6000 5740.0000 1.0000
51.6200 5925.0000 1.0000
51.6400 6047.0000 1.0000
51.6600 6223.0000 1.0000
51.6800 6321.0000 1.0000
51.7000 6471.0000 1.0000
51.7200 6615.0000 1.0000
51.7400 6697.0000 1.0000
51.7600 7034.0000 1.0000
51.7800 7039.0000 1.0000
51.8000 7377.0000 1.0000
51.8200 7546.0000 1.0000
51.8400 7673.0000 1.0000
51.8600 7944.0000 1.0000
51.8800 8114.0000 1.0000
51.9000 8500.0000 1.0000
51.9200 8615.0000 1.0000
51.9400 8942.0000 1.0000
51.9600 8873.0000 1.0000
51.9800 9164.0000 1.0000
52.0000 9345.0000 1.0000
52.0200 9546.0000 1.0000
52.0400 9505.0000 1.0000
52.0600 9848.0000 1.0000
52.0800 9673.0000 1.0000
52.1000 9984.0000 1.0000
52.1200 9891.0000 1.0000
52.1400 9959.0000 1.0000
52.1600 9989.0000 1.0000
52.1800 9904.0000 1.0000
52.2000 9906.0000 1.0000
52.2200 9860.0000 1.0000
52.2400 9786.0000 1.0000
52.2600 9567.0000 1.0000
52.2800 9451.0000 1.0000
52.3000 9436.0000 1.0000
52.3200 9123.0000 1.0000
52.3400 9215.0000 1.0000
52.3600 9126.0000 1.0000
52.3800 8815.0000 1.0000
52.4000 8739.0000 1.0000
52.4200 8429.0000 1.0000
52.4400 8390.0000 1.0000
52.4600 8253.0000 1.0000
52.4800 8184.0000 1.0000
52.5000 7947.0000 1.0000
52.5200 7808.0000 1.0000
52.5400 7591.0000 1.0000
52.5600 7734.0000 1.0000
52.5800 7448.0000 1.0000
52.6000 7386.0000 1.0000
52.6200 7252.0000 1.0000
52.6400 7224.0000 1.0000
52.6600 7284.0000 1.0000
52.6800 7139.0000 1.0000
52.7000 7028.0000 1.0000
52.7200 7073.0000 1.0000
52.7400 7136.0000 1.0000
52.7600 7026.0000 1.0000
52.7800 6977.0000 1.0000
52.8000 7025.0000 1.0000
52.8200 7076.0000 1.0000
52.8400 6891.0000 1.0000
52.8600 6904.0000 1.0000
52.8800 6926.0000 1.0000
52.9000 6946.0000 1.0000
52.9200 6970.0000 1.0000
52.9400 6940.0000 1.0000
52.9600 6911.0000 1.0000
52.9800 6874.0000 1.0000
53.0000 6891.0000 1.0000
53.0200 6885.0000 1.0000
53.0400 6862.0000 1.0000
53.0600 6890.0000 1.0000
53.0800 6832.0000 1.0000
53.1000 6763.0000 1.0000
53.1200 6768.0000 1.0000
53.1400 6585.0000 1.0000
53.1600 6652.0000 1.0000
53.1800 6592.0000 1.0000
53.2000 6437.0000 1.0000
53.2200 6332.0000 1.0000
53.2400 6300.0000 1.0000
53.2600 6215.0000 1.0000
53.2800 6317.0000 1.0000
53.3000 6155.0000 1.0000
53.3200 6158.0000 1.0000
53.3400 5777.0000 1.0000
53.3600 5843.0000 1.0000
53.3800 5754.0000 1.0000
53.4000 5683.0000 1.0000
53.4200 5613.0000 1.0000
53.4400 5471.0000 1.0000
53.4600 5235.0000 1.0000
53.4800 5135.0000 1.0000
53.5000 5073.0000 1.0000
53.5200 5088.0000 1.0000
53.5400 5071.0000 1.0000
53.5600 4980.0000 1.0000
53.5800 4934.0000 1.0000
53.6000 4781.0000 1.0000
53.6200 4809.0000 1.0000
53.6400 4627.0000 1.0000
53.6600 4647.0000 1.0000
53.6800 4570.0000 1.0000
53.7000 4564.0000 1.0000
53.7200 4343.0000 1.0000
53.7400 4393.0000 1.0000
53.7600 4327.0000 1.0000
53.7800 4281.0000 1.0000
53.8000 4230.0000 1.0000
53.8200 4227.0000 1.0000
53.8400 4180.0000 1.0000
53.8600 4268.0000 1.0000
53.8800 4120.0000 1.0000
53.9000 4041.0000 1.0000
53.9200 4039.0000 1.0000
53.9400 4020.0000 1.0000
53.9600 3901.0000 1.0000
53.9800 3932.0000 1.0000
54.0000 3853.0000 1.0000
54.0200 3845.0000 1.0000
54.0400 3900.0000 1.0000
54.0600 3851.0000 1.0000
54.0800 3765.0000 1.0000
54.1000 3706.0000 1.0000
54.1200 3770.0000 1.0000
54.1400 3635.0000 1.0000
54.1600 3459.0000 1.0000
54.1800 3497.0000 1.0000
54.2000 3614.0000 1.0000
54.2200 3480.0000 1.0000
54.2400 3472.0000 1.0000
54.2600 3389.0000 1.0000
54.2800 3461.0000 1.0000
54.3000 3442.0000 1.0000
54.3200 3425.0000 1.0000
54.3400 3425.0000 1.0000
54.3600 3389.0000 1.0000
54.3800 3402.0000 1.0000
54.4000 3338.0000 1.0000
54.4200 3312.0000 1.0000
54.4400 3268.0000 1.0000
54.4600 3240.0000 1.0000
54.4800 3324.0000 1.0000
54.5000 3237.0000 1.0000
54.5200 3306.0000 1.0000
54.5400 3321.0000 1.0000
54.5600 3250.0000 1.0000
54.5800 3266.0000 1.0000
54.6000 3254.0000 1.0000
54.6200 3222.0000 1.0000
54.6400 3224.0000 1.0000
54.6600 3220.0000 1.0000
54.6800 3337.0000 1.0000
54.7000 3221.0000 1.0000
54.7200 3320.0000 1.0000
54.7400 3402.0000 1.0000
54.7600 3341.0000 1.0000
54.7800 3466.0000 1.0000
54.8000 3305.0000 1.0000
54.8200 3434.0000 1.0000
54.8400 3543.0000 1.0000
54.8600 3433.0000 1.0000
54.8800 3390.0000 1.0000
54.9000 3419.0000 1.0000
54.9200 3391.0000 1.0000
54.9400 3440.0000 1.0000
54.9600 3409.0000 1.0000
54.9800 3321.0000 1.0000
55.0000 3333.0000 1.0000
55.0200 3272.0000 1.0000
55.0400 3236.0000 1.0000
55.0600 3214.0000 1.0000
55.0800 3215.0000 1.0000
55.1000 3148.0000 1.0000
55.1200 3105.0000 1.0000
55.1400 3007.0000 1.0000
55.1600 3132.0000 1.0000
55.1800 3108.0000 1.0000
55.2000 3020.0000 1.0000
55.2200 3066.0000 1.0000
55.2400 2973.0000 1.0000
55.2600 3033.0000 1.0000
55.2800 2926.0000 1.0000
55.3000 2895.0000 1.0000
55.3200 2869.0000 1.0000
55.3400 2942.0000 1.0000
55.3600 2852.0000 1.0000
55.3800 2786.0000 1.0000
55.4000 2830.0000 1.0000
55.4200 2761.0000 1.0000
55.4400 2803.0000 1.0000
55.4600 2826.0000 1.0000
55.4800 2707.0000 1.0000
55.5000 2775.0000 1.0000
55.5200 2794.0000 1.0000
55.5400 2704.0000 1.0000
55.5600 2770.0000 1.0000
55.5800 2735.0000 1.0000
55.6000 2778.0000 1.0000
55.6200 2727.0000 1.0000
55.6400 2689.0000 1.0000
55.6600 2709.0000 1.0000
55.6800 2778.0000 1.0000
55.7000 2810.0000 1.0000
55.7200 2849.0000 1.0000
55.7400 2715.0000 1.0000
55.7600 2770.0000 1.0000
55.7800 2687.0000 1.0000
55.8000 2697.0000 1.0000
55.8200 2756.0000 1.0000
55.8400 2615.0000 1.0000
55.8600 2740.0000 1.0000
55.8800 2544.0000 1.0000
55.9000 2640.0000 1.0000
55.9200 2600.0000 1.0000
55.9400 2711.0000 1.0000
55.9600 2773.0000 1.0000
55.9800 2728.0000 1.0000
56.0000 2720.0000 1.0000
56.0200 2710.0000 1.0000
56.0400 2613.0000 1.0000
56.0600 2775.0000 1.0000
56.0800 2721.0000 1.0000
56.1000 2685.0000 1.0000
56.1200 2746.0000 1.0000
56.1400 2736.0000 1.0000
56.1600 2724.0000 1.0000
56.1800 2732.0000 1.0000
56.2000 2787.0000 1.0000
56.2200 2696.0000 1.0000
56.2400 2686.0000 1.0000
56.2600 2825.0000 1.0000
56.2800 2780.0000 1.0000
56.3000 2814.0000 1.0000
56.3200 2764.0000 1.0000
56.3400 2810.0000 1.0000
56.3600 2755.0000 1.0000
56.3800 2749.0000 1.0000
56.4000 2794.0000 1.0000
56.4200 2790.0000 1.0000
56.4400 2685.0000 1.0000
56.4600 2694.0000 1.0000
56.4800 2636.0000 1.0000
56.5000 2739.0000 1.0000
56.5200 2705.0000 1.0000
56.5400 2508.0000 1.0000
56.5600 2593.0000 1.0000
56.5800 2584.0000 1.0000
56.6000 2468.0000 1.0000
56.6200 2430.0000 1.0000
56.6400 2381.0000 1.0000
56.6600 2388.0000 1.0000
56.6800 2334.0000 1.0000
56.7000 2345.0000 1.0000
56.7200 2303.0000 1.0000
56.7400 2220.0000 1.0000
56.7600 2209.0000 1.0000
56.7800 2161.0000 1.0000
56.8000 2234.0000 1.0000
56.8200 2091.0000 1.0000
56.8400 2108.0000 1.0000
56.8600 2090.0000 1.0000
56.8800 2090.0000 1.0000
56.9000 2132.0000 1.0000
56.9200 2064.0000 1.0000
56.9400 2120.0000 1.0000
56.9600 2104.0000 1.0000
56.9800 2104.0000 1.0000
57.0000 2099.0000 1.0000
57.0200 2065.0000 1.0000
57.0400 2082.0000 1.0000
57.0600 1977.0000 1.0000
57.0800 2014.0000 1.0000
57.1000 1997.0000 1.0000
57.1200 1908.0000 1.0000
57.1400 2017.0000 1.0000
57.1600 1940.0000 1.0000
57.1800 2037.0000 1.0000
57.2000 1981.0000 1.0000
57.2200 2056.0000 1.0000
57.2400 1975.0000 1.0000
57.2600 2012.0000 1.0000
57.2800 2024.0000 1.0000
57.3000 1965.0000 1.0000
57.3200 1993.0000 1.0000
57.3400 1855.0000 1.0000
57.3600 1970.0000 1.0000
57.3800 1924.0000 1.0000
57.4000 1982.0000 1.0000
57.4200 1955.0000 1.0000
57.4400 1973.0000 1.0000
57.4600 2011.0000 1.0000
57.4800 1855.0000 1.0000
57.5000 1915.0000 1.0000
57.5200 1936.0000 1.0000
57.5400 1919.0000 1.0000
57.5600 1950.0000 1.0000
57.5800 1883.0000 1.0000
57.6000 1934.0000 1.0000
57.6200 1929.0000 1.0000
57.6400 2028.0000 1.0000
57.6600 1920.0000 1.0000
57.6800 1984.0000 1.0000
57.7000 2005.0000 1.0000
57.7200 1932.0000 1.0000
57.7400 2001.0000 1.0000
57.7600 1992.0000 1.0000
57.7800 2051.0000 1.0000
57.8000 1952.0000 1.0000
57.8200 2005.0000 1.0000
57.8400 1988.0000 1.0000
57.8600 2045.0000 1.0000
57.8800 1989.0000 1.0000
57.9000 1985.0000 1.0000
57.9200 2016.0000 1.0000
57.9400 2065.0000 1.0000
57.9600 2046.0000 1.0000
57.9800 2074.0000 1.0000
58.0000 2101.0000 1.0000
58.0200 2107.0000 1.0000
58.0400 2126.0000 1.0000
58.0600 2122.0000 1.0000
58.0800 2152.0000 1.0000
58.1000 2193.0000 1.0000
58.1200 2114.0000 1.0000
58.1400 2162.0000 1.0000
58.1600 2183.0000 1.0000
58.1800 2142.0000 1.0000
58.2000 2165.0000 1.0000
58.2200 2188.0000 1.0000
58.2400 2190.0000 1.0000
58.2600 2291.0000 1.0000
58.2800 2218.0000 1.0000
58.3000 2216.0000 1.0000
58.3200 2256.0000 1.0000
58.3400 2295.0000 1.0000
58.3600 2266.0000 1.0000
58.3800 2267.0000 1.0000
58.4000 2339.0000 1.0000
58.4200 2279.0000 1.0000
58.4400 2350.0000 1.0000
58.4600 2362.0000 1.0000
58.4800 2495.0000 1.0000
58.5000 2433.0000 1.0000
58.5200 2349.0000 1.0000
58.5400 2399.0000 1.0000
58.5600 2378.0000 1.0000
58.5800 2392.0000 1.0000
58.6000 2383.0000 1.0000
58.6200 2485.0000 1.0000
58.6400 2465.0000 1.0000
58.6600 2406.0000 1.0000
58.6800 2377.0000 1.0000
58.7000 2407.0000 1.0000
58.7200 2411.0000 1.0000
58.7400 2410.0000 1.0000
58.7600 2386.0000 1.0000
58.7800 2321.0000 1.0000
58.8000 2367.0000 1.0000
58.8200 2374.0000 1.0000
58.8400 2418.0000 1.0000
58.8600 2325.0000 1.0000
58.8800 2306.0000 1.0000
58.9000 2249.0000 1.0000
58.9200 2316.0000 1.0000
58.9400 2202.0000 1.0000
58.9600 2219.0000 1.0000
58.9800 2306.0000 1.0000
59.0000 2170.0000 1.0000
59.0200 2153.0000 1.0000
59.0400 2183.0000 1.0000
59.0600 2182.0000 1.0000
59.0800 2225.0000 1.0000
59.1000 2197.0000 1.0000
59.1200 2120.0000 1.0000
59.1400 2125.0000 1.0000
59.1600 2075.0000 1.0000
59.1800 2133.0000 1.0000
59.2000 2093.0000 1.0000
59.2200 2018.0000 1.0000
59.2400 2095.0000 1.0000
59.2600 2018.0000 1.0000
59.2800 2000.0000 1.0000
59.3000 2060.0000 1.0000
59.3200 1970.0000 1.0000
59.3400 2009.0000 1.0000
59.3600 1989.0000 1.0000
59.3800 1991.0000 1.0000
59.4000 1995.0000 1.0000
59.4200 1962.0000 1.0000
59.4400 1977.0000 1.0000
59.4600 2003.0000 1.0000
59.4800 1941.0000 1.0000
59.5000 2028.0000 1.0000
59.5200 1855.0000 1.0000
59.5400 1927.0000 1.0000
59.5600 1922.0000 1.0000
59.5800 1982.0000 1.0000
59.6000 1819.0000 1.0000
59.6200 1880.0000 1.0000
59.6400 1879.0000 1.0000
59.6600 1811.0000 1.0000
59.6800 1910.0000 1.0000
59.7000 1863.0000 1.0000
59.7200 1865.0000 1.0000
59.7400 1833.0000 1.0000
59.7600 1886.0000 1.0000
59.7800 1842.0000 1.0000
59.8000 1836.0000 1.0000
59.8200 1785.0000 1.0000
59.8400 1822.0000 1.0000
59.8600 1840.0000 1.0000
59.8800 1802.0000 1.0000
59.9000 1836.0000 1.0000
59.9200 1817.0000 1.0000
59.9400 1748.0000 1.0000
59.9600 1818.0000 1.0000
59.9800 1796.0000 1.0000
60.0000 1810.0000 1.0000
60.0200 1748.0000 1.0000
60.0400 1783.0000 1.0000
60.0600 1799.0000 1.0000
60.0800 1831.0000 1.0000
60.1000 1756.0000 1.0000
60.1200 1789.0000 1.0000
60.1400 1733.0000 1.0000
60.1600 1752.0000 1.0000
60.1800 1851.0000 1.0000
60.2000 1806.0000 1.0000
60.2200 1690.0000 1.0000
60.2400 1704.0000 1.0000
60.2600 1773.0000 1.0000
60.2800 1709.0000 1.0000
60.3000 1755.0000 1.0000
60.3200 1731.0000 1.0000
60.3400 1735.0000 1.0000
60.3600 1692.0000 1.0000
60.3800 1703.0000 1.0000
60.4000 1792.0000 1.0000
60.4200 1709.0000 1.0000
60.4400 1750.0000 1.0000
60.4600 1708.0000 1.0000
60.4800 1675.0000 1.0000
60.5000 1740.0000 1.0000
60.5200 1687.0000 1.0000
60.5400 1755.0000 1.0000
60.5600 1644.0000 1.0000
60.5800 1730.0000 1.0000
60.6000 1739.0000 1.0000
60.6200 1688.0000 1.0000
60.6400 1718.0000 1.0000
60.6600 1756.0000 1.0000
60.6800 1714.0000 1.0000
60.7000 1801.0000 1.0000
60.7200 1762.0000 1.0000
60.7400 1788.0000 1.0000
60.7600 1783.0000 1.0000
60.7800 1719.0000 1.0000
60.8000 1848.0000 1.0000
60.8200 1734.0000 1.0000
60.8400 1763.0000 1.0000
60.8600 1795.0000 1.0000
60.8800 1752.0000 1.0000
60.9000 1762.0000 1.0000
60.9200 1750.0000 1.0000
60.9400 1768.0000 1.0000
60.9600 1774.0000 1.0000
60.9800 1767.0000 1.0000
61.0000 1740.0000 1.0000
61.0200 1813.0000 1.0000
61.0400 1865.0000 1.0000
61.0600 1817.0000 1.0000
61.0800 1829.0000 1.0000
61.1000 1816.0000 1.0000
61.1200 1840.0000 1.0000
61.1400 1809.0000 1.0000
61.1600 1815.0000 1.0000
61.1800 1834.0000 1.0000
61.2000 1824.0000 1.0000
61.2200 1811.0000 1.0000
61.2400 1726.0000 1.0000
61.2600 1776.0000 1.0000
61.2800 1759.0000 1.0000
61.3000 1745.0000 1.0000
61.3200 1756.0000 1.0000
61.3400 1793.0000 1.0000
61.3600 1774.0000 1.0000
61.3800 1763.0000 1.0000
61.4000 1706.0000 1.0000
61.4200 1799.0000 1.0000
61.4400 1766.0000 1.0000
61.4600 1810.0000 1.0000
61.4800 1743.0000 1.0000
61.5000 1770.0000 1.0000
61.5200 1637.0000 1.0000
61.5400 1701.0000 1.0000
61.5600 1692.0000 1.0000
61.5800 1633.0000 1.0000
61.6000 1681.0000 1.0000
61.6200 1704.0000 1.0000
61.6400 1673.0000 1.0000
61.6600 1703.0000 1.0000
61.6800 1751.0000 1.0000
61.7000 1678.0000 1.0000
61.7200 1676.0000 1.0000
61.7400 1649.0000 1.0000
61.7600 1611.0000 1.0000
61.7800 1687.0000 1.0000
61.8000 1666.0000 1.0000
61.8200 1636.0000 1.0000
61.8400 1621.0000 1.0000
61.8600 1643.0000 1.0000
61.8800 1648.0000 1.0000
61.9000 1646.0000 1.0000
61.9200 1598.0000 1.0000
61.9400 1635.0000 1.0000
61.9600 1609.0000 1.0000
61.9800 1589.0000 1.0000
62.0000 1579.0000 1.0000
62.0200 1593.0000 1.0000
62.0400 1526.0000 1.0000
62.0600 1573.0000 1.0000
62.0800 1612.0000 1.0000
62.1000 1629.0000 1.0000
62.1200 1620.0000 1.0000
62.1400 1550.0000 1.0000
62.1600 1617.0000 1.0000
62.1800 1627.0000 1.0000
62.2000 1601.0000 1.0000
62.2200 1563.0000 1.0000
62.2400 1598.0000 1.0000
62.2600 1547.0000 1.0000
62.2800 1508.0000 1.0000
62.3000 1534.0000 1.0000
62.3200 1613.0000 1.0000
62.3400 1557.0000 1.0000
62.3600 1545.0000 1.0000
62.3800 1606.0000 1.0000
62.4000 1567.0000 1.0000
62.4200 1554.0000 1.0000
62.4400 1536.0000 1.0000
62.4600 1570.0000 1.0000
62.4800 1594.0000 1.0000
62.5000 1463.0000 1.0000
62.5200 1548.0000 1.0000
62.5400 1552.0000 1.0000
62.5600 1561.0000 1.0000
62.5800 1595.0000 1.0000
62.6000 1506.0000 1.0000
62.6200 1593.0000 1.0000
62.6400 1532.0000 1.0000
62.6600 1524.0000 1.0000
62.6800 1542.0000 1.0000
62.7000 1561.0000 1.0000
62.7200 1499.0000 1.0000
62.7400 1594.0000 1.0000
62.7600 1567.0000 1.0000
62.7800 1540.0000 1.0000
62.8000 1456.0000 1.0000
62.8200 1614.0000 1.0000
62.8400 1507.0000 1.0000
62.8600 1515.0000 1.0000
62.8800 1581.0000 1.0000
62.9000 1503.0000 1.0000
62.9200 1541.0000 1.0000
62.9400 1583.0000 1.0000
62.9600 1499.0000 1.0000
62.9800 1503.0000 1.0000
63.0000 1517.0000 1.0000
63.0200 1408.0000 1.0000
63.0400 1603.0000 1.0000
63.0600 1461.0000 1.0000
63.0800 1555.0000 1.0000
63.1000 1541.0000 1.0000
63.1200 1612.0000 1.0000
63.1400 1496.0000 1.0000
63.1600 1548.0000 1.0000
63.1800 1482.0000 1.0000
63.2000 1529.0000 1.0000
63.2200 1564.0000 1.0000
63.2400 1569.0000 1.0000
63.2600 1618.0000 1.0000
63.2800 1581.0000 1.0000
63.3000 1531.0000 1.0000
63.3200 1514.0000 1.0000
63.3400 1542.0000 1.0000
63.3600 1500.0000 1.0000
63.3800 1487.0000 1.0000
63.4000 1504.0000 1.0000
63.4200 1470.0000 1.0000
63.4400 1483.0000 1.0000
63.4600 1529.0000 1.0000
63.4800 1485.0000 1.0000
63.5000 1558.0000 1.0000
63.5200 1540.0000 1.0000
63.5400 1537.0000 1.0000
63.5600 1541.0000 1.0000
63.5800 1530.0000 1.0000
63.6000 1500.0000 1.0000
63.6200 1509.0000 1.0000
63.6400 1566.0000 1.0000
63.6600 1530.0000 1.0000
63.6800 1512.0000 1.0000
63.7000 1511.0000 1.0000
63.7200 1470.0000 1.0000
63.7400 1542.0000 1.0000
63.7600 1542.0000 1.0000
63.7800 1473.0000 1.0000
63.8000 1485.0000 1.0000
63.8200 1463.0000 1.0000
63.8400 1485.0000 1.0000
63.8600 1526.0000 1.0000
63.8800 1489.0000 1.0000
63.9000 1473.0000 1.0000
63.9200 1522.0000 1.0000
63.9400 1540.0000 1.0000
63.9600 1531.0000 1.0000
63.9800 1532.0000 1.0000
64.0000 1562.0000 1.0000
64.0200 1547.0000 1.0000
64.0400 1507.0000 1.0000
64.0600 1529.0000 1.0000
64.0800 1531.0000 1.0000
64.1000 1406.0000 1.0000
64.1200 1547.0000 1.0000
64.1400 1502.0000 1.0000
64.1600 1508.0000 1.0000
64.1800 1480.0000 1.0000
64.2000 1524.0000 1.0000
64.2200 1474.0000 1.0000
64.2400 1462.0000 1.0000
64.2600 1483.0000 1.0000
64.2800 1543.0000 1.0000
64.3000 1558.0000 1.0000
64.3200 1512.0000 1.0000
64.3400 1541.0000 1.0000
64.3600 1569.0000 1.0000
64.3800 1502.0000 1.0000
64.4000 1528.0000 1.0000
64.4200 1521.0000 1.0000
64.4400 1557.0000 1.0000
64.4600 1530.0000 1.0000
64.4800 1489.0000 1.0000
64.5000 1570.0000 1.0000
64.5200 1552.0000 1.0000
64.5400 1457.0000 1.0000
64.5600 1507.0000 1.0000
64.5800 1571.0000 1.0000
64.6000 1491.0000 1.0000
64.6200 1559.0000 1.0000
64.6400 1592.0000 1.0000
64.6600 1534.0000 1.0000
64.6800 1565.0000 1.0000
64.7000 1588.0000 1.0000
64.7200 1573.0000 1.0000
64.7400 1501.0000 1.0000
64.7600 1527.0000 1.0000
64.7800 1528.0000 1.0000
64.8000 1499.0000 1.0000
64.8200 1512.0000 1.0000
64.8400 1546.0000 1.0000
64.8600 1577.0000 1.0000
64.8800 1636.0000 1.0000
64.9000 1638.0000 1.0000
64.9200 1487.0000 1.0000
64.9400 1506.0000 1.0000
64.9600 1533.0000 1.0000
64.9800 1569.0000 1.0000
65.0000 1537.0000 1.0000
65.0200 1525.0000 1.0000
65.0400 1542.0000 1.0000
65.0600 1503.0000 1.0000
65.0800 1591.0000 1.0000
65.1000 1507.0000 1.0000
65.1200 1487.0000 1.0000
65.1400 1537.0000 1.0000
65.1600 1595.0000 1.0000
65.1800 1624.0000 1.0000
65.2000 1587.0000 1.0000
65.2200 1556.0000 1.0000
65.2400 1566.0000 1.0000
65.2600 1659.0000 1.0000
65.2800 1597.0000 1.0000
65.3000 1651.0000 1.0000
65.3200 1606.0000 1.0000
65.3400 1613.0000 1.0000
65.3600 1574.0000 1.0000
65.3800 1605.0000 1.0000
65.4000 1601.0000 1.0000
65.4200 1613.0000 1.0000
65.4400 1595.0000 1.0000
65.4600 1621.0000 1.0000
65.4800 1676.0000 1.0000
65.5000 1650.0000 1.0000
65.5200 1631.0000 1.0000
65.5400 1599.0000 1.0000
65.5600 1682.0000 1.0000
65.5800 1682.0000 1.0000
65.6000 1703.0000 1.0000
65.6200 1688.0000 1.0000
65.6400 1648.0000 1.0000
65.6600 1633.0000 1.0000
65.6800 1646.0000 1.0000
65.7000 1630.0000 1.0000
65.7200 1654.0000 1.0000
65.7400 1677.0000 1.0000
65.7600 1721.0000 1.0000
65.7800 1748.0000 1.0000
65.8000 1702.0000 1.0000
65.8200 1683.0000 1.0000
65.8400 1725.0000 1.0000
65.8600 1774.0000 1.0000
65.8800 1766.0000 1.0000
65.9000 1771.0000 1.0000
65.9200 1757.0000 1.0000
65.9400 1862.0000 1.0000
65.9600 1749.0000 1.0000
65.9800 1867.0000 1.0000
66.0000 1776.0000 1.0000
66.0200 1787.0000 1.0000
66.0400 1839.0000 1.0000
66.0600 1772.0000 1.0000
66.0800 1828.0000 1.0000
66.1000 1929.0000 1.0000
66.1200 1839.0000 1.0000
66.1400 1868.0000 1.0000
66.1600 1867.0000 1.0000
66.1800 1961.0000 1.0000
66.2000 1923.0000 1.0000
66.2200 1954.0000 1.0000
66.2400 1917.0000 1.0000
66.2600 1973.0000 1.0000
66.2800 2012.0000 1.0000
66.3000 1995.0000 1.0000
66.3200 2090.0000 1.0000
66.3400 2100.0000 1.0000
66.3600 2052.0000 1.0000
66.3800 2125.0000 1.0000
66.4000 2150.0000 1.0000
66.4200 2156.0000 1.0000
66.4400 2219.0000 1.0000
66.4600 2218.0000 1.0000
66.4800 2264.0000 1.0000
66.5000 2294.0000 1.0000
66.5200 2351.0000 1.0000
66.5400 2324.0000 1.0000
66.5600 2383.0000 1.0000
66.5800 2431.0000 1.0000
66.6000 2435.0000 1.0000
66.6200 2493.0000 1.0000
66.6400 2548.0000 1.0000
66.6600 2573.0000 1.0000
66.6800 2623.0000 1.0000
66.7000 2595.0000 1.0000
66.7200 2684.0000 1.0000
66.7400 2644.0000 1.0000
66.7600 2763.0000 1.0000
66.7800 2789.0000 1.0000
66.8000 2816.0000 1.0000
66.8200 2932.0000 1.0000
66.8400 2919.0000 1.0000
66.8600 2893.0000 1.0000
66.8800 3066.0000 1.0000
66.9000 3020.0000 1.0000
66.9200 3032.0000 1.0000
66.9400 3196.0000 1.0000
66.9600 3136.0000 1.0000
66.9800 3118.0000 1.0000
67.0000 3246.0000 1.0000
67.0200 3151.0000 1.0000
67.0400 3156.0000 1.0000
67.0600 3209.0000 1.0000
67.0800 3352.0000 1.0000
67.1000 3281.0000 1.0000
67.1200 3404.0000 1.0000
67.1400 3342.0000 1.0000
67.1600 3301.0000 1.0000
67.1800 3323.0000 1.0000
67.2000 3357.0000 1.0000
67.2200 3402.0000 1.0000
67.2400 3271.0000 1.0000
67.2600 3281.0000 1.0000
67.2800 3166.0000 1.0000
67.3000 3265.0000 1.0000
67.3200 3361.0000 1.0000
67.3400 3110.0000 1.0000
67.3600 3214.0000 1.0000
67.3800 3235.0000 1.0000
67.4000 3204.0000 1.0000
67.4200 3218.0000 1.0000
67.4400 3213.0000 1.0000
67.4600 3211.0000 1.0000
67.4800 2991.0000 1.0000
67.5000 3063.0000 1.0000
67.5200 3071.0000 1.0000
67.5400 3008.0000 1.0000
67.5600 3004.0000 1.0000
67.5800 2955.0000 1.0000
67.6000 2972.0000 1.0000
67.6200 2850.0000 1.0000
67.6400 2751.0000 1.0000
67.6600 2872.0000 1.0000
67.6800 2842.0000 1.0000
67.7000 2813.0000 1.0000
67.7200 2881.0000 1.0000
67.7400 2788.0000 1.0000
67.7600 2732.0000 1.0000
67.7800 2568.0000 1.0000
67.8000 2689.0000 1.0000
67.8200 2549.0000 1.0000
67.8400 2620.0000 1.0000
67.8600 2593.0000 1.0000
67.8800 2588.0000 1.0000
67.9000 2572.0000 1.0000
67.9200 2574.0000 1.0000
67.9400 2558.0000 1.0000
67.9600 2516.0000 1.0000
67.9800 2425.0000 1.0000
68.0000 2458.0000 1.0000
68.0200 2410.0000 1.0000
68.0400 2459.0000 1.0000
68.0600 2378.0000 1.0000
68.0800 2409.0000 1.0000
68.1000 2347.0000 1.0000
68.1200 2263.0000 1.0000
68.1400 2334.0000 1.0000
68.1600 2330.0000 1.0000
68.1800 2347.0000 1.0000
68.2000 2344.0000 1.0000
68.2200 2407.0000 1.0000
68.2400 2352.0000 1.0000
68.2600 2285.0000 1.0000
68.2800 2233.0000 1.0000
68.3000 2192.0000 1.0000
68.3200 2271.0000 1.0000
68.3400 2179.0000 1.0000
68.3600 2270.0000 1.0000
68.3800 2270.0000 1.0000
68.4000 2301.0000 1.0000
68.4200 2279.0000 1.0000
68.4400 2187.0000 1.0000
68.4600 2254.0000 1.0000
68.4800 2230.0000 1.0000
68.5000 2174.0000 1.0000
68.5200 2152.0000 1.0000
68.5400 2197.0000 1.0000
68.5600 2176.0000 1.0000
68.5800 2090.0000 1.0000
68.6000 2125.0000 1.0000
68.6200 2247.0000 1.0000
68.6400 2179.0000 1.0000
68.6600 2076.0000 1.0000
68.6800 2187.0000 1.0000
68.7000 2141.0000 1.0000
68.7200 2186.0000 1.0000
68.7400 2110.0000 1.0000
68.7600 2158.0000 1.0000
68.7800 2062.0000 1.0000
68.8000 2145.0000 1.0000
68.8200 2202.0000 1.0000
68.8400 2139.0000 1.0000
68.8600 2161.0000 1.0000
68.8800 2091.0000 1.0000
68.9000 2216.0000 1.0000
68.9200 2198.0000 1.0000
68.9400 2213.0000 1.0000
68.9600 2140.0000 1.0000
68.9800 2137.0000 1.0000
69.0000 2133.0000 1.0000
69.0200 2187.0000 1.0000
69.0400 2259.0000 1.0000
69.0600 2162.0000 1.0000
69.0800 2242.0000 1.0000
69.1000 2238.0000 1.0000
69.1200 2219.0000 1.0000
69.1400 2186.0000 1.0000
69.1600 2277.0000 1.0000
69.1800 2276.0000 1.0000
69.2000 2298.0000 1.0000
69.2200 2277.0000 1.0000
69.2400 2314.0000 1.0000
69.2600 2387.0000 1.0000
69.2800 2310.0000 1.0000
69.3000 2333.0000 1.0000
69.3200 2355.0000 1.0000
69.3400 2393.0000 1.0000
69.3600 2345.0000 1.0000
69.3800 2364.0000 1.0000
69.4000 2434.0000 1.0000
69.4200 2506.0000 1.0000
69.4400 2387.0000 1.0000
69.4600 2422.0000 1.0000
69.4800 2462.0000 1.0000
69.5000 2350.0000 1.0000
69.5200 2492.0000 1.0000
69.5400 2463.0000 1.0000
69.5600 2458.0000 1.0000
69.5800 2486.0000 1.0000
69.6000 2489.0000 1.0000
69.6200 2442.0000 1.0000
69.6400 2475.0000 1.0000
69.6600 2499.0000 1.0000
69.6800 2530.0000 1.0000
69.7000 2499.0000 1.0000
69.7200 2514.0000 1.0000
69.7400 2508.0000 1.0000
69.7600 2486.0000 1.0000
69.7800 2469.0000 1.0000
69.8000 2499.0000 1.0000
69.8200 2490.0000 1.0000
69.8400 2434.0000 1.0000
69.8600 2571.0000 1.0000
69.8800 2598.0000 1.0000
69.9000 2477.0000 1.0000
69.9200 2468.0000 1.0000
69.9400 2473.0000 1.0000
69.9600 2484.0000 1.0000
69.9800 2471.0000 1.0000
70.0000 2523.0000 1.0000
70.0200 2503.0000 1.0000
70.0400 2504.0000 1.0000
70.0600 2396.0000 1.0000
70.0800 2442.0000 1.0000
70.1000 2499.0000 1.0000
70.1200 2465.0000 1.0000
70.1400 2467.0000 1.0000
70.1600 2430.0000 1.0000
70.1800 2489.0000 1.0000
70.2000 2427.0000 1.0000
70.2200 2372.0000 1.0000
70.2400 2425.0000 1.0000
70.2600 2443.0000 1.0000
70.2800 2438.0000 1.0000
70.3000 2442.0000 1.0000
70.3200 2475.0000 1.0000
70.3400 2415.0000 1.0000
70.3600 2462.0000 1.0000
70.3800 2423.0000 1.0000
70.4000 2440.0000 1.0000
70.4200 2458.0000 1.0000
70.4400 2438.0000 1.0000
70.4600 2430.0000 1.0000
70.4800 2545.0000 1.0000
70.5000 2514.0000 1.0000
70.5200 2491.0000 1.0000
70.5400 2494.0000 1.0000
70.5600 2568.0000 1.0000
70.5800 2612.0000 1.0000
70.6000 2637.0000 1.0000
70.6200 2572.0000 1.0000
70.6400 2586.0000 1.0000
70.6600 2540.0000 1.0000
70.6800 2540.0000 1.0000
70.7000 2609.0000 1.0000
70.7200 2715.0000 1.0000
70.7400 2704.0000 1.0000
70.7600 2721.0000 1.0000
70.7800 2708.0000 1.0000
70.8000 2770.0000 1.0000
70.8200 2693.0000 1.0000
70.8400 2837.0000 1.0000
70.8600 2867.0000 1.0000
70.8800 2890.0000 1.0000
70.9000 2890.0000 1.0000
70.9200 2845.0000 1.0000
70.9400 2978.0000 1.0000
70.9600 3018.0000 1.0000
70.9800 2986.0000 1.0000
71.0000 3049.0000 1.0000
71.0200 3115.0000 1.0000
71.0400 3038.0000 1.0000
71.0600 3088.0000 1.0000
71.0800 3105.0000 1.0000
71.1000 3128.0000 1.0000
71.1200 3140.0000 1.0000
71.1400 3205.0000 1.0000
71.1600 3163.0000 1.0000
71.1800 3153.0000 1.0000
71.2000 3049.0000 1.0000
71.2200 3202.0000 1.0000
71.2400 3179.0000 1.0000
71.2600 3172.0000 1.0000
71.2800 3253.0000 1.0000
71.3000 3191.0000 1.0000
71.3200 3098.0000 1.0000
71.3400 3210.0000 1.0000
71.3600 3161.0000 1.0000
71.3800 3216.0000 1.0000
71.4000 3145.0000 1.0000
71.4200 3215.0000 1.0000
71.4400 3086.0000 1.0000
71.4600 3082.0000 1.0000
71.4800 3153.0000 1.0000
71.5000 3103.0000 1.0000
71.5200 3035.0000 1.0000
71.5400 3052.0000 1.0000
71.5600 3040.0000 1.0000
71.5800 2945.0000 1.0000
71.6000 3120.0000 1.0000
71.6200 2865.0000 1.0000
71.6400 2919.0000 1.0000
71.6600 2874.0000 1.0000
71.6800 2863.0000 1.0000
71.7000 2856.0000 1.0000
71.7200 2858.0000 1.0000
71.7400 2837.0000 1.0000
71.7600 2749.0000 1.0000
71.7800 2757.0000 1.0000
71.8000 2759.0000 1.0000
71.8200 2678.0000 1.0000
71.8400 2760.0000 1.0000
71.8600 2723.0000 1.0000
71.8800 2736.0000 1.0000
71.9000 2749.0000 1.0000
71.9200 2721.0000 1.0000
71.9400 2653.0000 1.0000
71.9600 2738.0000 1.0000
71.9800 2617.0000 1.0000
72.0000 2624.0000 1.0000
72.0200 2638.0000 1.0000
72.0400 2662.0000 1.0000
72.0600 2610.0000 1.0000
72.0800 2598.0000 1.0000
72.1000 2622.0000 1.0000
72.1200 2622.0000 1.0000
72.1400 2517.0000 1.0000
72.1600 2534.0000 1.0000
72.1800 2614.0000 1.0000
72.2000 2622.0000 1.0000
72.2200 2696.0000 1.0000
72.2400 2548.0000 1.0000
72.2600 2600.0000 1.0000
72.2800 2598.0000 1.0000
72.3000 2604.0000 1.0000
72.3200 2645.0000 1.0000
72.3400 2730.0000 1.0000
72.3600 2653.0000 1.0000
72.3800 2756.0000 1.0000
72.4000 2685.0000 1.0000
72.4200 2589.0000 1.0000
72.4400 2618.0000 1.0000
72.4600 2569.0000 1.0000
72.4800 2722.0000 1.0000
72.5000 2707.0000 1.0000
72.5200 2689.0000 1.0000
72.5400 2696.0000 1.0000
72.5600 2592.0000 1.0000
72.5800 2777.0000 1.0000
72.6000 2711.0000 1.0000
72.6200 2711.0000 1.0000
72.6400 2663.0000 1.0000
72.6600 2695.0000 1.0000
72.6800 2682.0000 1.0000
72.7000 2775.0000 1.0000
72.7200 2697.0000 1.0000
72.7400 2709.0000 1.0000
72.7600 2676.0000 1.0000
72.7800 2603.0000 1.0000
72.8000 2743.0000 1.0000
72.8200 2637.0000 1.0000
72.8400 2661.0000 1.0000
72.8600 2720.0000 1.0000
72.8800 2733.0000 1.0000
72.9000 2799.0000 1.0000
72.9200 2588.0000 1.0000
72.9400 2686.0000 1.0000
72.9600 2650.0000 1.0000
72.9800 2615.0000 1.0000
73.0000 2736.0000 1.0000
73.0200 2573.0000 1.0000
73.0400 2633.0000 1.0000
73.0600 2524.0000 1.0000
73.0800 2590.0000 1.0000
73.1000 2563.0000 1.0000
73.1200 2480.0000 1.0000
73.1400 2539.0000 1.0000
73.1600 2476.0000 1.0000
73.1800 2482.0000 1.0000
73.2000 2415.0000 1.0000
73.2200 2376.0000 1.0000
73.2400 2423.0000 1.0000
73.2600 2455.0000 1.0000
73.2800 2415.0000 1.0000
73.3000 2373.0000 1.0000
73.3200 2359.0000 1.0000
73.3400 2413.0000 1.0000
73.3600 2395.0000 1.0000
73.3800 2409.0000 1.0000
73.4000 2372.0000 1.0000
73.4200 2261.0000 1.0000
73.4400 2326.0000 1.0000
73.4600 2311.0000 1.0000
73.4800 2316.0000 1.0000
73.5000 2261.0000 1.0000
73.5200 2328.0000 1.0000
73.5400 2258.0000 1.0000
73.5600 2227.0000 1.0000
73.5800 2271.0000 1.0000
73.6000 2288.0000 1.0000
73.6200 2217.0000 1.0000
73.6400 2197.0000 1.0000
73.6600 2212.0000 1.0000
73.6800 2192.0000 1.0000
73.7000 2155.0000 1.0000
73.7200 2159.0000 1.0000
73.7400 2159.0000 1.0000
73.7600 2129.0000 1.0000
73.7800 2241.0000 1.0000
73.8000 2236.0000 1.0000
73.8200 2097.0000 1.0000
73.8400 2237.0000 1.0000
73.8600 2188.0000 1.0000
73.8800 2056.0000 1.0000
73.9000 2056.0000 1.0000
73.9200 2112.0000 1.0000
73.9400 2089.0000 1.0000
73.9600 2148.0000 1.0000
73.9800 2087.0000 1.0000
74.0000 2169.0000 1.0000
74.0200 2133.0000 1.0000
74.0400 2096.0000 1.0000
74.0600 2108.0000 1.0000
74.0800 2205.0000 1.0000
74.1000 2058.0000 1.0000
74.1200 2118.0000 1.0000
74.1400 2117.0000 1.0000
74.1600 2086.0000 1.0000
74.1800 2072.0000 1.0000
74.2000 2117.0000 1.0000
74.2200 2083.0000 1.0000
74.2400 2179.0000 1.0000
74.2600 2155.0000 1.0000
74.2800 2135.0000 1.0000
74.3000 2059.0000 1.0000
74.3200 2085.0000 1.0000
74.3400 2068.0000 1.0000
74.3600 2169.0000 1.0000
74.3800 2059.0000 1.0000
74.4000 2033.0000 1.0000
74.4200 2056.0000 1.0000
74.4400 2020.0000 1.0000
74.4600 2068.0000 1.0000
74.4800 2092.0000 1.0000
74.5000 2113.0000 1.0000
74.5200 2129.0000 1.0000
74.5400 2092.0000 1.0000
74.5600 2103.0000 1.0000
74.5800 2081.0000 1.0000
74.6000 2087.0000 1.0000
74.6200 2113.0000 1.0000
74.6400 2102.0000 1.0000
74.6600 2061.0000 1.0000
74.6800 2112.0000 1.0000
74.7000 2074.0000 1.0000
74.7200 2108.0000 1.0000
74.7400 2106.0000 1.0000
74.7600 2165.0000 1.0000
74.7800 2169.0000 1.0000
74.8000 2188.0000 1.0000
74.8200 2249.0000 1.0000
74.8400 2125.0000 1.0000
74.8600 2238.0000 1.0000
74.8800 2164.0000 1.0000
74.9000 2168.0000 1.0000
74.9200 2231.0000 1.0000
74.9400 2186.0000 1.0000
74.9600 2220.0000 1.0000
74.9800 2321.0000 1.0000
75.0000 2229.0000 1.0000
75.0200 2281.0000 1.0000
75.0400 2329.0000 1.0000
75.0600 2341.0000 1.0000
75.0800 2238.0000 1.0000
75.1000 2293.0000 1.0000
75.1200 2427.0000 1.0000
75.1400 2262.0000 1.0000
75.1600 2353.0000 1.0000
75.1800 2410.0000 1.0000
75.2000 2498.0000 1.0000
75.2200 2440.0000 1.0000
75.2400 2423.0000 1.0000
75.2600 2458.0000 1.0000
75.2800 2591.0000 1.0000
75.3000 2511.0000 1.0000
75.3200 2567.0000 1.0000
75.3400 2693.0000 1.0000
75.3600 2712.0000 1.0000
75.3800 2601.0000 1.0000
75.4000 2604.0000 1.0000
75.4200 2693.0000 1.0000
75.4400 2735.0000 1.0000
75.4600 2788.0000 1.0000
75.4800 2765.0000 1.0000
75.5000 2849.0000 1.0000
75.5200 2758.0000 1.0000
75.5400 2942.0000 1.0000
75.5600 3006.0000 1.0000
75.5800 2969.0000 1.0000
75.6000 2931.0000 1.0000
75.6200 2995.0000 1.0000
75.6400 3033.0000 1.0000
75.6600 3075.0000 1.0000
75.6800 3079.0000 1.0000
75.7000 3168.0000 1.0000
75.7200 3160.0000 1.0000
75.7400 3264.0000 1.0000
75.7600 3238.0000 1.0000
75.7800 3202.0000 1.0000
75.8000 3254.0000 1.0000
75.8200 3324.0000 1.0000
75.8400 3335.0000 1.0000
75.8600 3270.0000 1.0000
75.8800 3461.0000 1.0000
75.9000 3366.0000 1.0000
75.9200 3274.0000 1.0000
75.9400 3451.0000 1.0000
75.9600 3475.0000 1.0000
75.9800 3373.0000 1.0000
76.0000 3314.0000 1.0000
76.0200 3412.0000 1.0000
76.0400 3356.0000 1.0000
76.0600 3416.0000 1.0000
76.0800 3380.0000 1.0000
76.1000 3359.0000 1.0000
76.1200 3258.0000 1.0000
76.1400 3350.0000 1.0000
76.1600 3321.0000 1.0000
76.1800 3368.0000 1.0000
76.2000 3235.0000 1.0000
76.2200 3214.0000 1.0000
76.2400 3206.0000 1.0000
76.2600 3297.0000 1.0000
76.2800 3084.0000 1.0000
76.3000 3094.0000 1.0000
76.3200 3091.0000 1.0000
76.3400 3020.0000 1.0000
76.3600 3120.0000 1.0000
76.3800 3043.0000 1.0000
76.4000 3036.0000 1.0000
76.4200 2984.0000 1.0000
76.4400 2962.0000 1.0000
76.4600 2950.0000 1.0000
76.4800 2880.0000 1.0000
76.5000 2916.0000 1.0000
76.5200 2789.0000 1.0000
76.5400 2876.0000 1.0000
76.5600 2769.0000 1.0000
76.5800 2768.0000 1.0000
76.6000 2865.0000 1.0000
76.6200 2692.0000 1.0000
76.6400 2718.0000 1.0000
76.6600 2671.0000 1.0000
76.6800 2554.0000 1.0000
76.7000 2585.0000 1.0000
76.7200 2593.0000 1.0000
76.7400 2668.0000 1.0000
76.7600 2553.0000 1.0000
76.7800 2541.0000 1.0000
76.8000 2538.0000 1.0000
76.8200 2565.0000 1.0000
76.8400 2562.0000 1.0000
76.8600 2501.0000 1.0000
76.8800 2430.0000 1.0000
76.9000 2447.0000 1.0000
76.9200 2371.0000 1.0000
76.9400 2421.0000 1.0000
76.9600 2378.0000 1.0000
76.9800 2338.0000 1.0000
77.0000 2338.0000 1.0000
77.0200 2331.0000 1.0000
77.0400 2370.0000 1.0000
77.0600 2275.0000 1.0000
77.0800 2274.0000 1.0000
77.1000 2288.0000 1.0000
77.1200 2347.0000 1.0000
77.1400 2279.0000 1.0000
77.1600 2278.0000 1.0000
77.1800 2228.0000 1.0000
77.2000 2277.0000 1.0000
77.2200 2307.0000 1.0000
77.2400 2242.0000 1.0000
77.2600 2212.0000 1.0000
77.2800 2139.0000 1.0000
77.3000 2174.0000 1.0000
77.3200 2259.0000 1.0000
77.3400 2160.0000 1.0000
77.3600 2153.0000 1.0000
77.3800 2184.0000 1.0000
77.4000 2109.0000 1.0000
77.4200 2024.0000 1.0000
77.4400 2127.0000 1.0000
77.4600 2067.0000 1.0000
77.4800 2095.0000 1.0000
77.5000 2088.0000 1.0000
77.5200 2086.0000 1.0000
77.5400 2168.0000 1.0000
77.5600 2029.0000 1.0000
77.5800 2113.0000 1.0000
77.6000 1950.0000 1.0000
77.6200 2038.0000 1.0000
77.6400 2136.0000 1.0000
77.6600 2033.0000 1.0000
77.6800 2055.0000 1.0000
77.7000 2025.0000 1.0000
77.7200 2033.0000 1.0000
77.7400 2030.0000 1.0000
77.7600 1964.0000 1.0000
77.7800 2071.0000 1.0000
77.8000 1987.0000 1.0000
77.8200 2006.0000 1.0000
77.8400 1981.0000 1.0000
77.8600 2096.0000 1.0000
77.8800 2097.0000 1.0000
77.9000 1971.0000 1.0000
77.9200 1971.0000 1.0000
77.9400 1965.0000 1.0000
77.9600 1925.0000 1.0000
77.9800 1978.0000 1.0000
78.0000 1960.0000 1.0000
78.0200 1920.0000 1.0000
78.0400 1979.0000 1.0000
78.0600 1929.0000 1.0000
78.0800 1919.0000 1.0000
78.1000 1904.0000 1.0000
78.1200 1971.0000 1.0000
78.1400 1917.0000 1.0000
78.1600 1986.0000 1.0000
78.1800 1961.0000 1.0000
78.2000 1887.0000 1.0000
78.2200 1906.0000 1.0000
78.2400 2044.0000 1.0000
78.2600 1903.0000 1.0000
78.2800 1864.0000 1.0000
78.3000 1857.0000 1.0000
78.3200 1841.0000 1.0000
78.3400 1952.0000 1.0000
78.3600 1902.0000 1.0000
78.3800 1911.0000 1.0000
78.4000 1838.0000 1.0000
78.4200 1837.0000 1.0000
78.4400 1888.0000 1.0000
78.4600 1860.0000 1.0000
78.4800 1924.0000 1.0000
78.5000 1908.0000 1.0000
78.5200 1855.0000 1.0000
78.5400 1886.0000 1.0000
78.5600 1864.0000 1.0000
78.5800 1862.0000 1.0000
78.6000 1803.0000 1.0000
78.6200 1857.0000 1.0000
78.6400 1849.0000 1.0000
78.6600 1924.0000 1.0000
78.6800 1817.0000 1.0000
78.7000 1878.0000 1.0000
78.7200 1863.0000 1.0000
78.7400 1833.0000 1.0000
78.7600 1791.0000 1.0000
78.7800 1835.0000 1.0000
78.8000 1845.0000 1.0000
78.8200 1872.0000 1.0000
78.8400 1828.0000 1.0000
78.8600 1828.0000 1.0000
78.8800 1844.0000 1.0000
78.9000 1779.0000 1.0000
78.9200 1788.0000 1.0000
78.9400 1755.0000 1.0000
78.9600 1819.0000 1.0000
78.9800 1842.0000 1.0000
79.0000 1845.0000 1.0000
79.0200 1837.0000 1.0000
79.0400 1808.0000 1.0000
79.0600 1868.0000 1.0000
79.0800 1839.0000 1.0000
79.1000 1764.0000 1.0000
79.1200 1720.0000 1.0000
79.1400 1764.0000 1.0000
79.1600 1825.0000 1.0000
79.1800 1713.0000 1.0000
79.2000 1804.0000 1.0000
79.2200 1816.0000 1.0000
79.2400 1793.0000 1.0000
79.2600 1744.0000 1.0000
79.2800 1777.0000 1.0000
79.3000 1847.0000 1.0000
79.3200 1765.0000 1.0000
79.3400 1875.0000 1.0000
79.3600 1767.0000 1.0000
79.3800 1808.0000 1.0000
79.4000 1779.0000 1.0000
79.4200 1835.0000 1.0000
79.4400 1854.0000 1.0000
79.4600 1827.0000 1.0000
79.4800 1804.0000 1.0000
79.5000 1779.0000 1.0000
79.5200 1822.0000 1.0000
79.5400 1861.0000 1.0000
79.5600 1802.0000 1.0000
79.5800 1847.0000 1.0000
79.6000 1820.0000 1.0000
79.6200 1859.0000 1.0000
79.6400 1876.0000 1.0000
79.6600 1826.0000 1.0000
79.6800 1866.0000 1.0000
79.7000 1818.0000 1.0000
79.7200 1950.0000 1.0000
79.7400 1851.0000 1.0000
79.7600 1881.0000 1.0000
79.7800 1850.0000 1.0000
79.8000 1838.0000 1.0000
79.8200 1874.0000 1.0000
79.8400 1836.0000 1.0000
79.8600 1945.0000 1.0000
79.8800 1909.0000 1.0000
79.9000 1930.0000 1.0000
79.9200 1908.0000 1.0000
79.9400 1881.0000 1.0000
79.9600 1933.0000 1.0000
79.9800 1909.0000 1.0000
80.0000 1892.0000 1.0000
*RAS_INT_END
*RAS_DATA_END
