*TYPE		=  Raw
*CLASS		=  ASCII CLASS
*SAMPLE		=   
*COMMENT	=   
*FNAME		=  Cu-ZnCdS_Theta_2-Theta.asc
*DATE		=  01-Jun-26 15:19

*GROUP_COUNT	=  1
*GONIO		=  SmartLab, 0.000000
*ATTACHMENT	=  Standard Z stage
*ASC		=  0, 0, 0.000000, 0.000000
*I_MONOCHRO	=  Soller_slit_5.0deg, 0.000000
*FILTER		=  Cu_K-beta
*C_MONOCHRO	=  None, 0.000000
*SLIT_NAME	=  0, Incident slit
*SLIT_NAME	=  1, Receiving slit # 1
*SLIT_NAME	=  2, Receiving slit # 2
*COUNTER	=  D/teX Ultra, 0
*POS_FORMAT	=  0
*SCAN_AXIS	=  2theta/theta
*MEAS_MODE	=  Continuous Scanning
*TARGET		=  29
*XRAY_CHAR	=  K-ALPHA
*WAVE_LENGTH1	=  1.54059
*WAVE_LENGTH2	=  1.54441
*THICKNESS	=  0, 0.000000
*MU		=  0, 0.000000
*SCAN_MODE	=  2theta/theta
*SPEED_DIM	=  sec./step
*XUNIT		=  deg.
*YUNIT		=  counts
*SCALE_MODE	=  1
*REP_COUNT	=  0
*SE_COUNT	=  0
*STD_MATERIAL	=  Unknown, Unknown, 0.000000, 0.000000, 0.000000, 0.000000, 0.000000, 0.000000
*LATT_CONS	=  0, Unknown, Unknown, 0.000000, 0.000000, 0.000000, 0.000000, 0.000000, 0.000000
*SEC_COUNT	=  1
*TSPEC_SIZE	=  0
*EXTRA_SIZE	=  0
*MEMO		=   

*BEGIN
*GROUP		=  0
*START		=  10
*STOP		=  80
*STEP		=  0.02
*OFFSET		=  0.000000
*SPEED		=  0.12
*SLIT_SPEC	=  0, 2/3deg, 2, 0.000000
*SLIT_SPEC	=  1, 20.000mm, 20, 0.000000
*SLIT_SPEC	=  2, 20.000mm, 20, 0.000000
*KV		=  40
*MA		=  150
*LOW		=  0.000000
*HIGH		=  0.000000
*CTEMPER	=  0, 0.000000
*CTEMPER	=  1, 0.000000
*CTEMPER	=  2, 0.000000
*PAREX		=  0, 0.000000
*PAREX		=  1, 0.000000
*PAREX		=  2, 0.000000
*PAREX		=  3, 0.000000
*PAREX		=  4, 0.000000
*PAREX		=  5, 0.000000
*PAREX		=  6, 0.000000
*PAREX		=  7, 0.000000
*PAREX		=  8, 0.000000
*PAREX		=  9, 0.000000
*PAREX		=  10, 0.000000
*PAREX		=  11, 0.000000
*PAREX		=  12, 0.000000
*PAREX		=  13, 0.000000
*PAREX		=  14, 0.000000
*PAREX		=  15, 0.000000
*FULL_SCALE	=  325620
*INDEX		=  0, 0, 0
*COUNT		=  3501
6378, 6282, 6357, 6159
6275, 6422, 6487, 6388
6353, 6308, 6016, 6019
5919, 5946, 5922, 5953
5952, 5953, 5957, 5840
5858, 5747, 5878, 5901
5672, 5809, 5909, 5870
5754, 5712, 5814, 5735
5724, 5744, 5716, 5783
5715, 5789, 5744, 5673
5851, 5753, 5636, 5593
5692, 5612, 5635, 5591
5538, 5612, 5647, 5522
5627, 5448, 5480, 5544
5419, 5553, 5423, 5374
5449, 5493, 5434, 5448
5415, 5455, 5467, 5353
5445, 5495, 5395, 5339
5297, 5469, 5364, 5445
5363, 5369, 5238, 5213
5226, 5319, 5323, 5357
5274, 5258, 5238, 5279
5031, 5198, 5213, 5229
5084, 5103, 5133, 5242
5249, 5258, 5025, 5068
5184, 5148, 5184, 5128
5018, 5081, 5067, 5030
5064, 5137, 5097, 4993
5023, 4939, 4945, 5085
4861, 4864, 4874, 4870
4853, 4987, 4992, 4940
4818, 4718, 4751, 4759
4759, 4743, 4645, 4606
4673, 4822, 4772, 4699
4686, 4745, 4668, 4769
4557, 4457, 4629, 4636
4608, 4683, 4686, 4533
4621, 4584, 4533, 4416
4431, 4548, 4556, 4476
4492, 4465, 4446, 4401
4447, 4280, 4337, 4288
4366, 4249, 4253, 4313
4313, 4270, 4142, 4339
4305, 4233, 4214, 4227
4220, 4270, 4133, 4113
4167, 4131, 4119, 4111
4076, 4054, 4049, 4112
4099, 4105, 4135, 4072
3973, 4035, 4003, 3902
3984, 3900, 3981, 3926
3996, 3975, 3905, 3922
3971, 3929, 3943, 3963
3956, 3843, 3816, 3901
3840, 3850, 3882, 3999
3865, 3962, 3943, 3848
3900, 3790, 3912, 3740
3786, 3718, 3631, 3615
3659, 3692, 3736, 3545
3475, 3541, 3492, 3631
3569, 3648, 3517, 3455
3370, 3521, 3499, 3465
3458, 3443, 3429, 3497
3466, 3491, 3448, 3392
3496, 3433, 3383, 3363
3376, 3373, 3478, 3279
3376, 3380, 3430, 3321
3335, 3327, 3207, 3270
3365, 3321, 3182, 3299
3293, 3155, 3249, 3302
3210, 3259, 3287, 3203
3216, 3268, 3262, 3250
3192, 3230, 3146, 3089
3090, 3201, 3222, 3188
3116, 3237, 3179, 3137
3016, 3162, 3168, 3109
3088, 3136, 3153, 3102
3112, 3194, 3092, 3117
3103, 3118, 3107, 3136
2977, 3063, 3028, 3104
3020, 3032, 2960, 3052
3121, 2945, 3048, 3072
2998, 2964, 2974, 2958
3016, 3005, 3047, 2974
3027, 3023, 2977, 2962
2973, 3020, 2923, 2958
2968, 2997, 2998, 3025
2919, 2983, 2977, 2940
2982, 2895, 2909, 2950
2885, 2894, 2946, 2844
2951, 2939, 2934, 2918
2907, 2998, 2957, 2917
2941, 2891, 2900, 2971
2909, 2999, 2793, 2871
2868, 2836, 2780, 2844
2926, 2837, 2772, 2865
2961, 2887, 3021, 2842
2779, 2898, 2780, 2832
2836, 2948, 2759, 2889
2813, 2866, 2822, 2859
2857, 2848, 2911, 2878
2775, 2729, 2805, 2913
2854, 2782, 2838, 2836
2716, 2857, 2849, 2746
2796, 2809, 2722, 2734
2822, 2734, 2852, 2770
2778, 2759, 2734, 2733
2777, 2923, 2685, 2764
2791, 2795, 2671, 2679
2663, 2734, 2682, 2776
2719, 2659, 2704, 2735
2740, 2773, 2786, 2741
2621, 2761, 2733, 2715
2728, 2735, 2624, 2701
2659, 2643, 2566, 2675
2755, 2707, 2677, 2620
2607, 2638, 2650, 2592
2748, 2631, 2670, 2676
2655, 2658, 2615, 2612
2729, 2670, 2647, 2670
2691, 2608, 2636, 2703
2633, 2606, 2642, 2645
2573, 2642, 2638, 2688
2612, 2628, 2708, 2689
2648, 2640, 2721, 2619
2656, 2606, 2610, 2679
2630, 2709, 2630, 2609
2687, 2633, 2713, 2679
2615, 2713, 2672, 2686
2698, 2698, 2666, 2625
2715, 2686, 2696, 2642
2674, 2593, 2633, 2624
2629, 2547, 2544, 2596
2635, 2572, 2618, 2610
2508, 2559, 2641, 2652
2627, 2593, 2661, 2578
2627, 2625, 2650, 2616
2570, 2570, 2602, 2621
2631, 2556, 2558, 2605
2600, 2571, 2602, 2602
2653, 2752, 2660, 2628
2634, 2569, 2587, 2604
2572, 2488, 2578, 2598
2575, 2567, 2539, 2607
2568, 2671, 2600, 2576
2548, 2573, 2575, 2581
2580, 2621, 2599, 2637
2530, 2653, 2581, 2619
2647, 2611, 2586, 2636
2556, 2629, 2567, 2494
2614, 2570, 2636, 2732
2594, 2549, 2570, 2567
2569, 2584, 2609, 2656
2679, 2647, 2582, 2578
2598, 2650, 2706, 2643
2649, 2677, 2660, 2651
2731, 2765, 2686, 2699
2821, 2774, 2728, 2737
2755, 2712, 2699, 2688
2681, 2715, 2806, 2580
2683, 2712, 2624, 2639
2667, 2703, 2656, 2709
2686, 2563, 2767, 2625
2714, 2811, 2769, 2774
2754, 2679, 2753, 2728
2761, 2783, 2706, 2656
2742, 2689, 2804, 2744
2660, 2657, 2712, 2720
2709, 2784, 2754, 2726
2742, 2727, 2695, 2796
2818, 2763, 2825, 2789
2857, 2804, 2763, 2780
2855, 2861, 2882, 2830
2983, 2951, 3006, 3028
2946, 3057, 3163, 3012
3196, 3215, 3191, 3341
3211, 3290, 3333, 3415
3439, 3439, 3578, 3617
3620, 3741, 3648, 3684
3803, 3746, 3954, 4206
4095, 4168, 4220, 4401
4467, 4642, 4773, 4947
5205, 5324, 5546, 5773
6063, 6526, 6773, 7152
7676, 8097, 8698, 9329
10117, 10509, 11272, 12177
12822, 13706, 14554, 15587
16408, 17256, 17793, 18370
18856, 19032, 19364, 19203
19291, 18918, 18450, 18283
17403, 16751, 16304, 15786
15341, 14647, 14032, 13486
13111, 12412, 11988, 11734
11384, 10960, 10520, 10414
10183, 9733, 9327, 9332
8951, 8715, 8484, 8237
8158, 7907, 7664, 7637
7618, 7404, 7331, 7435
7086, 7106, 6853, 6958
6830, 6855, 6729, 6622
6624, 6373, 6527, 6462
6667, 6546, 6448, 6447
6438, 6408, 6455, 6492
6461, 6636, 6710, 6675
6777, 7011, 7095, 7123
7426, 7559, 8106, 8511
9053, 9435, 10221, 10941
11853, 13186, 14394, 15811
17692, 20014, 22014, 23961
25918, 27392, 28592, 28778
27759, 26614, 25073, 23465
21497, 19910, 18289, 17059
15758, 15047, 14043, 13597
12905, 12430, 11984, 11447
11332, 11118, 10452, 10299
10153, 9722, 9737, 9501
9213, 9250, 9032, 8965
8995, 8928, 9017, 8804
8842, 8889, 8793, 8653
8756, 8870, 8794, 8771
8818, 8919, 8995, 9056
9134, 9049, 9051, 9236
9428, 9499, 9770, 9805
9987, 10165, 10331, 10662
10875, 11099, 11480, 11813
12269, 12935, 13258, 14094
14785, 15390, 16390, 17176
17995, 19340, 20371, 21771
23016, 24132, 25616, 26608
28088, 29239, 30114, 30971
31473, 32521, 32562, 32449
32365, 31873, 31321, 30742
29651, 28491, 27518, 26327
25156, 23944, 22828, 22065
20966, 19806, 19017, 17928
17057, 16264, 15496, 14912
14402, 13778, 13180, 12621
12318, 12049, 11207, 10922
10596, 10184, 10044, 9719
9348, 9253, 8837, 8655
8264, 8101, 8013, 7743
7659, 7469, 7254, 6962
6801, 6823, 6645, 6539
6369, 6389, 6201, 6133
5903, 5819, 5793, 5642
5475, 5489, 5408, 5366
5324, 5235, 5076, 4983
5013, 4930, 4830, 4735
4716, 4689, 4734, 4583
4467, 4560, 4426, 4325
4341, 4202, 4216, 4231
4175, 4115, 4152, 4098
4044, 4027, 4057, 4085
3860, 3888, 3689, 3727
3788, 3711, 3764, 3637
3693, 3667, 3669, 3653
3557, 3507, 3530, 3466
3431, 3405, 3424, 3442
3423, 3382, 3349, 3341
3300, 3357, 3251, 3368
3363, 3230, 3176, 3080
3097, 3149, 3102, 3140
3036, 3052, 3070, 3065
2982, 3023, 3093, 2970
3003, 2948, 2930, 2901
2874, 2937, 2888, 2842
2896, 2924, 2868, 2855
2849, 2854, 2878, 2819
2786, 2758, 2841, 2793
2763, 2805, 2854, 2842
2832, 2744, 2732, 2803
2720, 2854, 2800, 2761
2766, 2792, 2724, 2829
2870, 2862, 2827, 2789
2801, 2812, 2685, 2776
2707, 2685, 2655, 2736
2675, 2717, 2646, 2664
2635, 2651, 2667, 2575
2675, 2592, 2582, 2569
2621, 2668, 2606, 2606
2516, 2558, 2567, 2594
2538, 2577, 2611, 2541
2535, 2549, 2600, 2520
2501, 2505, 2612, 2591
2595, 2540, 2542, 2605
2537, 2596, 2611, 2602
2620, 2610, 2483, 2497
2558, 2572, 2573, 2506
2462, 2499, 2483, 2461
2513, 2573, 2503, 2524
2437, 2470, 2414, 2553
2458, 2527, 2484, 2377
2445, 2502, 2375, 2394
2397, 2455, 2310, 2453
2433, 2319, 2333, 2381
2397, 2240, 2297, 2346
2361, 2336, 2345, 2400
2277, 2283, 2360, 2349
2400, 2290, 2282, 2452
2386, 2212, 2291, 2369
2302, 2328, 2297, 2378
2351, 2338, 2365, 2221
2309, 2274, 2310, 2233
2289, 2284, 2267, 2326
2270, 2291, 2291, 2332
2177, 2305, 2278, 2334
2310, 2274, 2182, 2316
2341, 2361, 2231, 2313
2228, 2305, 2273, 2251
2252, 2173, 2323, 2305
2332, 2316, 2369, 2279
2245, 2350, 2332, 2311
2312, 2259, 2261, 2329
2385, 2334, 2273, 2354
2262, 2427, 2357, 2325
2308, 2346, 2345, 2384
2317, 2370, 2379, 2309
2334, 2437, 2386, 2361
2524, 2436, 2360, 2397
2384, 2477, 2409, 2472
2398, 2433, 2409, 2513
2506, 2561, 2536, 2561
2473, 2659, 2665, 2737
2607, 2693, 2685, 2566
2699, 2781, 2789, 2749
2703, 2770, 2839, 2812
2889, 2992, 3021, 2952
2993, 3113, 3090, 3223
3129, 3200, 3243, 3294
3382, 3393, 3633, 3576
3627, 3691, 3770, 3860
3928, 3990, 4078, 4284
4402, 4451, 4549, 4673
4734, 4870, 5011, 5196
5486, 5488, 5618, 5667
5892, 5944, 6054, 6016
6216, 6187, 6344, 6276
6373, 6195, 6415, 6212
6237, 6109, 6065, 5973
5814, 5700, 5555, 5624
5414, 5233, 5085, 4993
4775, 4778, 4707, 4689
4542, 4402, 4358, 4192
4114, 4141, 4067, 3930
3956, 3849, 3765, 3674
3694, 3741, 3606, 3480
3470, 3442, 3388, 3345
3391, 3281, 3309, 3206
3146, 3096, 3020, 3138
2967, 3053, 2923, 2924
2857, 2913, 2852, 2864
2835, 2801, 2856, 2794
2827, 2699, 2757, 2743
2662, 2641, 2666, 2681
2507, 2628, 2642, 2619
2553, 2560, 2512, 2457
2439, 2561, 2460, 2465
2487, 2414, 2550, 2430
2422, 2438, 2451, 2401
2463, 2393, 2375, 2451
2422, 2414, 2314, 2294
2394, 2327, 2386, 2399
2320, 2341, 2358, 2340
2387, 2360, 2322, 2240
2275, 2360, 2446, 2376
2355, 2334, 2347, 2267
2346, 2246, 2279, 2292
2272, 2215, 2271, 2360
2323, 2277, 2309, 2329
2284, 2327, 2294, 2280
2347, 2232, 2199, 2253
2216, 2212, 2265, 2276
2282, 2278, 2246, 2170
2224, 2226, 2204, 2219
2307, 2259, 2219, 2159
2109, 2139, 2221, 2203
2129, 2156, 2159, 2031
2146, 2141, 2121, 2130
2140, 2136, 2193, 2097
2153, 2156, 2119, 2125
2121, 2107, 2110, 2182
2126, 2121, 2187, 2191
2155, 2191, 2097, 2109
2139, 2197, 2226, 2236
2195, 2175, 2181, 2126
2218, 2115, 2155, 2267
2073, 2202, 2131, 2128
2012, 2034, 2071, 2170
2097, 2078, 2125, 2185
2159, 2181, 2124, 2094
2165, 2165, 2150, 2202
2123, 2155, 2121, 2149
2181, 2162, 2188, 2134
2120, 2190, 2176, 2190
2082, 2154, 2156, 2233
2205, 2194, 2117, 2142
2234, 2133, 2132, 2144
2221, 2183, 2180, 2237
2189, 2144, 2187, 2229
2148, 2200, 2159, 2274
2173, 2217, 2230, 2253
2297, 2268, 2292, 2253
2328, 2240, 2335, 2271
2345, 2337, 2420, 2278
2244, 2314, 2445, 2311
2323, 2450, 2496, 2428
2441, 2390, 2461, 2466
2436, 2388, 2476, 2561
2649, 2689, 2539, 2546
2551, 2614, 2595, 2659
2661, 2737, 2764, 2685
2791, 2823, 2793, 2789
2834, 2875, 2937, 2977
2977, 3089, 3149, 3103
3144, 3299, 3215, 3301
3420, 3520, 3616, 3564
3763, 3785, 3870, 3911
4132, 4183, 4384, 4441
4605, 4834, 5026, 5099
5335, 5630, 5867, 5920
6230, 6651, 6842, 7071
7617, 7967, 8310, 8754
9076, 9588, 9943, 10246
10715, 11177, 11539, 11891
12288, 12479, 12595, 13023
12931, 13087, 13090, 12986
13145, 12956, 12894, 12729
12317, 12209, 11794, 11718
11173, 10943, 10838, 10172
9911, 9681, 9409, 9239
8789, 8551, 8407, 8156
7932, 7755, 7527, 7463
7111, 7217, 6845, 6800
6692, 6659, 6493, 6163
6183, 6037, 5950, 5838
5762, 5566, 5476, 5459
5533, 5356, 5391, 5177
5106, 5090, 5004, 5070
4874, 4883, 4777, 4753
4681, 4612, 4691, 4515
4447, 4404, 4433, 4433
4326, 4344, 4169, 4218
4246, 4214, 4249, 4106
4096, 4138, 4027, 4015
3957, 4068, 4029, 3976
3994, 3951, 3983, 4070
3822, 3884, 4025, 3845
3833, 3941, 3798, 3830
3850, 3810, 3725, 3650
3666, 3672, 3755, 3709
3752, 3679, 3790, 3662
3620, 3698, 3687, 3727
3647, 3616, 3706, 3570
3614, 3628, 3607, 3672
3606, 3649, 3702, 3682
3664, 3653, 3725, 3769
3602, 3611, 3742, 3759
3757, 3624, 3763, 3789
3759, 3820, 3757, 3826
3845, 3915, 3868, 3893
3817, 3932, 3872, 3946
3990, 4065, 4032, 4022
4064, 4121, 4115, 4244
4291, 4349, 4196, 4444
4383, 4464, 4471, 4640
4558, 4685, 4656, 4776
4890, 4826, 5099, 5162
5217, 5220, 5339, 5459
5492, 5653, 5835, 5976
5956, 6188, 6282, 6325
6488, 6490, 6609, 6951
6920, 7085, 7182, 7470
7593, 7510, 7568, 7820
8159, 8496, 8476, 8896
9011, 9219, 9566, 9709
10092, 10421, 10497, 10754
11164, 11300, 11426, 11537
11634, 11885, 11947, 11797
11935, 11803, 11620, 11554
11248, 11049, 10649, 10602
10433, 10066, 9930, 9670
9358, 9051, 8930, 8635
8477, 8097, 8090, 7696
7527, 7346, 7277, 7082
6850, 6764, 6610, 6250
6224, 6223, 6067, 5823
5806, 5745, 5770, 5577
5333, 5308, 5240, 5086
5052, 5028, 4768, 4674
4665, 4630, 4672, 4504
4477, 4369, 4301, 4296
4370, 4151, 4117, 4177
4022, 4018, 4075, 3977
3981, 3841, 3850, 3779
3742, 3666, 3719, 3635
3681, 3583, 3625, 3555
3650, 3529, 3430, 3498
3473, 3403, 3479, 3343
3357, 3314, 3389, 3366
3288, 3344, 3213, 3264
3334, 3253, 3286, 3228
3191, 3186, 3260, 3254
3221, 3181, 3232, 3232
3229, 3277, 3255, 3199
3181, 3085, 3211, 3137
3201, 3203, 3308, 3214
3185, 3235, 3173, 3278
3302, 3319, 3281, 3277
3341, 3362, 3430, 3482
3320, 3446, 3491, 3541
3562, 3617, 3683, 3621
3709, 3843, 3849, 3865
3926, 3957, 4061, 4010
4129, 4339, 4214, 4386
4360, 4440, 4513, 4497
4573, 4681, 4818, 4561
4726, 4777, 4900, 4781
4782, 4945, 4856, 4899
5158, 5204, 5087, 5089
5242, 5308, 5260, 5352
5489, 5567, 5746, 5646
5740, 5925, 6047, 6223
6321, 6471, 6615, 6697
7034, 7039, 7377, 7546
7673, 7944, 8114, 8500
8615, 8942, 8873, 9164
9345, 9546, 9505, 9848
9673, 9984, 9891, 9959
9989, 9904, 9906, 9860
9786, 9567, 9451, 9436
9123, 9215, 9126, 8815
8739, 8429, 8390, 8253
8184, 7947, 7808, 7591
7734, 7448, 7386, 7252
7224, 7284, 7139, 7028
7073, 7136, 7026, 6977
7025, 7076, 6891, 6904
6926, 6946, 6970, 6940
6911, 6874, 6891, 6885
6862, 6890, 6832, 6763
6768, 6585, 6652, 6592
6437, 6332, 6300, 6215
6317, 6155, 6158, 5777
5843, 5754, 5683, 5613
5471, 5235, 5135, 5073
5088, 5071, 4980, 4934
4781, 4809, 4627, 4647
4570, 4564, 4343, 4393
4327, 4281, 4230, 4227
4180, 4268, 4120, 4041
4039, 4020, 3901, 3932
3853, 3845, 3900, 3851
3765, 3706, 3770, 3635
3459, 3497, 3614, 3480
3472, 3389, 3461, 3442
3425, 3425, 3389, 3402
3338, 3312, 3268, 3240
3324, 3237, 3306, 3321
3250, 3266, 3254, 3222
3224, 3220, 3337, 3221
3320, 3402, 3341, 3466
3305, 3434, 3543, 3433
3390, 3419, 3391, 3440
3409, 3321, 3333, 3272
3236, 3214, 3215, 3148
3105, 3007, 3132, 3108
3020, 3066, 2973, 3033
2926, 2895, 2869, 2942
2852, 2786, 2830, 2761
2803, 2826, 2707, 2775
2794, 2704, 2770, 2735
2778, 2727, 2689, 2709
2778, 2810, 2849, 2715
2770, 2687, 2697, 2756
2615, 2740, 2544, 2640
2600, 2711, 2773, 2728
2720, 2710, 2613, 2775
2721, 2685, 2746, 2736
2724, 2732, 2787, 2696
2686, 2825, 2780, 2814
2764, 2810, 2755, 2749
2794, 2790, 2685, 2694
2636, 2739, 2705, 2508
2593, 2584, 2468, 2430
2381, 2388, 2334, 2345
2303, 2220, 2209, 2161
2234, 2091, 2108, 2090
2090, 2132, 2064, 2120
2104, 2104, 2099, 2065
2082, 1977, 2014, 1997
1908, 2017, 1940, 2037
1981, 2056, 1975, 2012
2024, 1965, 1993, 1855
1970, 1924, 1982, 1955
1973, 2011, 1855, 1915
1936, 1919, 1950, 1883
1934, 1929, 2028, 1920
1984, 2005, 1932, 2001
1992, 2051, 1952, 2005
1988, 2045, 1989, 1985
2016, 2065, 2046, 2074
2101, 2107, 2126, 2122
2152, 2193, 2114, 2162
2183, 2142, 2165, 2188
2190, 2291, 2218, 2216
2256, 2295, 2266, 2267
2339, 2279, 2350, 2362
2495, 2433, 2349, 2399
2378, 2392, 2383, 2485
2465, 2406, 2377, 2407
2411, 2410, 2386, 2321
2367, 2374, 2418, 2325
2306, 2249, 2316, 2202
2219, 2306, 2170, 2153
2183, 2182, 2225, 2197
2120, 2125, 2075, 2133
2093, 2018, 2095, 2018
2000, 2060, 1970, 2009
1989, 1991, 1995, 1962
1977, 2003, 1941, 2028
1855, 1927, 1922, 1982
1819, 1880, 1879, 1811
1910, 1863, 1865, 1833
1886, 1842, 1836, 1785
1822, 1840, 1802, 1836
1817, 1748, 1818, 1796
1810, 1748, 1783, 1799
1831, 1756, 1789, 1733
1752, 1851, 1806, 1690
1704, 1773, 1709, 1755
1731, 1735, 1692, 1703
1792, 1709, 1750, 1708
1675, 1740, 1687, 1755
1644, 1730, 1739, 1688
1718, 1756, 1714, 1801
1762, 1788, 1783, 1719
1848, 1734, 1763, 1795
1752, 1762, 1750, 1768
1774, 1767, 1740, 1813
1865, 1817, 1829, 1816
1840, 1809, 1815, 1834
1824, 1811, 1726, 1776
1759, 1745, 1756, 1793
1774, 1763, 1706, 1799
1766, 1810, 1743, 1770
1637, 1701, 1692, 1633
1681, 1704, 1673, 1703
1751, 1678, 1676, 1649
1611, 1687, 1666, 1636
1621, 1643, 1648, 1646
1598, 1635, 1609, 1589
1579, 1593, 1526, 1573
1612, 1629, 1620, 1550
1617, 1627, 1601, 1563
1598, 1547, 1508, 1534
1613, 1557, 1545, 1606
1567, 1554, 1536, 1570
1594, 1463, 1548, 1552
1561, 1595, 1506, 1593
1532, 1524, 1542, 1561
1499, 1594, 1567, 1540
1456, 1614, 1507, 1515
1581, 1503, 1541, 1583
1499, 1503, 1517, 1408
1603, 1461, 1555, 1541
1612, 1496, 1548, 1482
1529, 1564, 1569, 1618
1581, 1531, 1514, 1542
1500, 1487, 1504, 1470
1483, 1529, 1485, 1558
1540, 1537, 1541, 1530
1500, 1509, 1566, 1530
1512, 1511, 1470, 1542
1542, 1473, 1485, 1463
1485, 1526, 1489, 1473
1522, 1540, 1531, 1532
1562, 1547, 1507, 1529
1531, 1406, 1547, 1502
1508, 1480, 1524, 1474
1462, 1483, 1543, 1558
1512, 1541, 1569, 1502
1528, 1521, 1557, 1530
1489, 1570, 1552, 1457
1507, 1571, 1491, 1559
1592, 1534, 1565, 1588
1573, 1501, 1527, 1528
1499, 1512, 1546, 1577
1636, 1638, 1487, 1506
1533, 1569, 1537, 1525
1542, 1503, 1591, 1507
1487, 1537, 1595, 1624
1587, 1556, 1566, 1659
1597, 1651, 1606, 1613
1574, 1605, 1601, 1613
1595, 1621, 1676, 1650
1631, 1599, 1682, 1682
1703, 1688, 1648, 1633
1646, 1630, 1654, 1677
1721, 1748, 1702, 1683
1725, 1774, 1766, 1771
1757, 1862, 1749, 1867
1776, 1787, 1839, 1772
1828, 1929, 1839, 1868
1867, 1961, 1923, 1954
1917, 1973, 2012, 1995
2090, 2100, 2052, 2125
2150, 2156, 2219, 2218
2264, 2294, 2351, 2324
2383, 2431, 2435, 2493
2548, 2573, 2623, 2595
2684, 2644, 2763, 2789
2816, 2932, 2919, 2893
3066, 3020, 3032, 3196
3136, 3118, 3246, 3151
3156, 3209, 3352, 3281
3404, 3342, 3301, 3323
3357, 3402, 3271, 3281
3166, 3265, 3361, 3110
3214, 3235, 3204, 3218
3213, 3211, 2991, 3063
3071, 3008, 3004, 2955
2972, 2850, 2751, 2872
2842, 2813, 2881, 2788
2732, 2568, 2689, 2549
2620, 2593, 2588, 2572
2574, 2558, 2516, 2425
2458, 2410, 2459, 2378
2409, 2347, 2263, 2334
2330, 2347, 2344, 2407
2352, 2285, 2233, 2192
2271, 2179, 2270, 2270
2301, 2279, 2187, 2254
2230, 2174, 2152, 2197
2176, 2090, 2125, 2247
2179, 2076, 2187, 2141
2186, 2110, 2158, 2062
2145, 2202, 2139, 2161
2091, 2216, 2198, 2213
2140, 2137, 2133, 2187
2259, 2162, 2242, 2238
2219, 2186, 2277, 2276
2298, 2277, 2314, 2387
2310, 2333, 2355, 2393
2345, 2364, 2434, 2506
2387, 2422, 2462, 2350
2492, 2463, 2458, 2486
2489, 2442, 2475, 2499
2530, 2499, 2514, 2508
2486, 2469, 2499, 2490
2434, 2571, 2598, 2477
2468, 2473, 2484, 2471
2523, 2503, 2504, 2396
2442, 2499, 2465, 2467
2430, 2489, 2427, 2372
2425, 2443, 2438, 2442
2475, 2415, 2462, 2423
2440, 2458, 2438, 2430
2545, 2514, 2491, 2494
2568, 2612, 2637, 2572
2586, 2540, 2540, 2609
2715, 2704, 2721, 2708
2770, 2693, 2837, 2867
2890, 2890, 2845, 2978
3018, 2986, 3049, 3115
3038, 3088, 3105, 3128
3140, 3205, 3163, 3153
3049, 3202, 3179, 3172
3253, 3191, 3098, 3210
3161, 3216, 3145, 3215
3086, 3082, 3153, 3103
3035, 3052, 3040, 2945
3120, 2865, 2919, 2874
2863, 2856, 2858, 2837
2749, 2757, 2759, 2678
2760, 2723, 2736, 2749
2721, 2653, 2738, 2617
2624, 2638, 2662, 2610
2598, 2622, 2622, 2517
2534, 2614, 2622, 2696
2548, 2600, 2598, 2604
2645, 2730, 2653, 2756
2685, 2589, 2618, 2569
2722, 2707, 2689, 2696
2592, 2777, 2711, 2711
2663, 2695, 2682, 2775
2697, 2709, 2676, 2603
2743, 2637, 2661, 2720
2733, 2799, 2588, 2686
2650, 2615, 2736, 2573
2633, 2524, 2590, 2563
2480, 2539, 2476, 2482
2415, 2376, 2423, 2455
2415, 2373, 2359, 2413
2395, 2409, 2372, 2261
2326, 2311, 2316, 2261
2328, 2258, 2227, 2271
2288, 2217, 2197, 2212
2192, 2155, 2159, 2159
2129, 2241, 2236, 2097
2237, 2188, 2056, 2056
2112, 2089, 2148, 2087
2169, 2133, 2096, 2108
2205, 2058, 2118, 2117
2086, 2072, 2117, 2083
2179, 2155, 2135, 2059
2085, 2068, 2169, 2059
2033, 2056, 2020, 2068
2092, 2113, 2129, 2092
2103, 2081, 2087, 2113
2102, 2061, 2112, 2074
2108, 2106, 2165, 2169
2188, 2249, 2125, 2238
2164, 2168, 2231, 2186
2220, 2321, 2229, 2281
2329, 2341, 2238, 2293
2427, 2262, 2353, 2410
2498, 2440, 2423, 2458
2591, 2511, 2567, 2693
2712, 2601, 2604, 2693
2735, 2788, 2765, 2849
2758, 2942, 3006, 2969
2931, 2995, 3033, 3075
3079, 3168, 3160, 3264
3238, 3202, 3254, 3324
3335, 3270, 3461, 3366
3274, 3451, 3475, 3373
3314, 3412, 3356, 3416
3380, 3359, 3258, 3350
3321, 3368, 3235, 3214
3206, 3297, 3084, 3094
3091, 3020, 3120, 3043
3036, 2984, 2962, 2950
2880, 2916, 2789, 2876
2769, 2768, 2865, 2692
2718, 2671, 2554, 2585
2593, 2668, 2553, 2541
2538, 2565, 2562, 2501
2430, 2447, 2371, 2421
2378, 2338, 2338, 2331
2370, 2275, 2274, 2288
2347, 2279, 2278, 2228
2277, 2307, 2242, 2212
2139, 2174, 2259, 2160
2153, 2184, 2109, 2024
2127, 2067, 2095, 2088
2086, 2168, 2029, 2113
1950, 2038, 2136, 2033
2055, 2025, 2033, 2030
1964, 2071, 1987, 2006
1981, 2096, 2097, 1971
1971, 1965, 1925, 1978
1960, 1920, 1979, 1929
1919, 1904, 1971, 1917
1986, 1961, 1887, 1906
2044, 1903, 1864, 1857
1841, 1952, 1902, 1911
1838, 1837, 1888, 1860
1924, 1908, 1855, 1886
1864, 1862, 1803, 1857
1849, 1924, 1817, 1878
1863, 1833, 1791, 1835
1845, 1872, 1828, 1828
1844, 1779, 1788, 1755
1819, 1842, 1845, 1837
1808, 1868, 1839, 1764
1720, 1764, 1825, 1713
1804, 1816, 1793, 1744
1777, 1847, 1765, 1875
1767, 1808, 1779, 1835
1854, 1827, 1804, 1779
1822, 1861, 1802, 1847
1820, 1859, 1876, 1826
1866, 1818, 1950, 1851
1881, 1850, 1838, 1874
1836, 1945, 1909, 1930
1908, 1881, 1933, 1909
1892
*END

*EOF
