*RAS_DATA_START
*RAS_HEADER_START
*DISP_FMT_X "%.2f"
*DISP_FMT_Y "%.0f"
*DISP_FULLSCALE "374200.0000000001"
*DISP_LINE_COLOR "255.0000000000"
*DISP_LINE_STYLE "0.0000000000"
*DISP_LINE_WIDTH "0.2500000000"
*DISP_NOTE "Collected Data-6"
*DISP_OFFSET_Y "0.0000000000"
*DISP_PEAKSEARCH_UNIT_Y "cps"
*DISP_RANGE_BOTTOM "0.0000000000"
*DISP_RANGE_LEFT "10.0000000000"
*DISP_RANGE_LOGCUTOFF "0.0100000000"
*DISP_RANGE_RIGHT "80.0000000000"
*DISP_RANGE_TOP "374200.0000000001"
*DISP_SCALE_MODE_Y "0.0000000000"
*DISP_TAB_NAME "Theta/2-Theta"
*DISP_TITLE_Y "Intensity"
*DISP_UNIT_Y "cps"
*DISP_WINDOW_NAME "MSG_MACROENGINE"
*FILE_COMMENT " "
*FILE_MD5 ""
*FILE_MEMO " "
*FILE_OPERATOR "administrator"
*FILE_SAMPLE "Ni-ZnCdS"
*FILE_TYPE "RAS_RAW"
*FILE_USERGROUP "System Manager"
*FILE_VERSION "1.0000000000"
*HW_ATTACHMENT_ID "ATT0025"
*HW_ATTACHMENT_NAME "標準|Standard"
*HW_COUNTER_ID-0 "CUT0025"
*HW_COUNTER_ID-1 "CUT0020"
*HW_COUNTER_ID-2 "CUT0020"
*HW_COUNTER_ID-3 "CSL0021"
*HW_COUNTER_ID-4 "CMC0021"
*HW_COUNTER_NAME-0 "D/teX Ultra|D/teX Ultra"
*HW_COUNTER_NAME-1 "None|None"
*HW_COUNTER_NAME-2 "None|None"
*HW_COUNTER_NAME-3 "BBM|BBM"
*HW_COUNTER_NAME-4 "検出器モノクロメータ|Detector monochromator"
*HW_COUNTER_SELECT_NAME "D/teX Ultra|D/teX Ultra"
*HW_GONIOMETER_ID "GON0023"
*HW_GONIOMETER_NAME "SmartLab|SmartLab"
*HW_GONIOMETER_RADIUS-0 "90.0"
*HW_GONIOMETER_RADIUS-1 "114.0"
*HW_GONIOMETER_RADIUS-2 "190.0"
*HW_GONIOMETER_RADIUS-3 "300.0"
*HW_GONIOMETER_RADIUS-4 "187.0"
*HW_GONIOMETER_RADIUS-5 "300.0"
*HW_GONIOMETER_RADIUS-6 "113.0"
*HW_GONIOMETER_RADIUS-7 "331.0"
*HW_I_OPT_ID-0 "CBO0021"
*HW_I_OPT_ID-1 "ICR0023"
*HW_I_OPT_ID-2 "ISL0021"
*HW_I_OPT_ID-3 "ISO0021"
*HW_I_OPT_ID-4 "IAD0021"
*HW_I_OPT_ID-5 "IPR0001"
*HW_I_OPT_NAME-0 "CBOユニット|CBO unit"
*HW_I_OPT_NAME-1 "標準入射光学ユニット|Standard incident optical unit"
*HW_I_OPT_NAME-2 "標準入射スリットボックス|Standard incident slit box"
*HW_I_OPT_NAME-3 "入射平行スリット|Incident parallel slit"
*HW_I_OPT_NAME-4 "長手制限スリット|Length limiting slit"
*HW_I_OPT_NAME-5 "None|None"
*HW_R_ATTENUATER_AUTOMODE "0"
*HW_R_OPT_ID-0 "RSS0021"
*HW_R_OPT_ID-1 "RCR0023"
*HW_R_OPT_ID-2 "RSO0021"
*HW_R_OPT_ID-3 "RRS0021"
*HW_R_OPT_ID-4 "ATN0021"
*HW_R_OPT_ID-5 "RFL0021"
*HW_R_OPT_ID-6 "RAD0021"
*HW_R_OPT_NAME-0 "標準受光スリットボックス1|Standard receiving slit box # 1"
*HW_R_OPT_NAME-1 "標準受光光学ユニット1|Standard receiving unit # 1"
*HW_R_OPT_NAME-2 "標準受光光学ユニット2|Standard receiving optical unit # 2"
*HW_R_OPT_NAME-3 "標準受光スリットボックス2|Standard receiving slit box # 2"
*HW_R_OPT_NAME-4 "標準アッテネータ|Standard Attenuator"
*HW_R_OPT_NAME-5 "Cu Kβ|Cu K-beta"
*HW_R_OPT_NAME-6 "調整用受光スリット|Alignment receiving slit"
*HW_SAMPLE_HOLDER_ID "SMP0023"
*HW_SAMPLE_HOLDER_NAME "標準Zステージ|Standard Z stage"
*HW_XG_CURRENT_MAX "200"
*HW_XG_CURRENT_MIN "10"
*HW_XG_CURRENT_RESOLUTION "2"
*HW_XG_CURRENT_UNIT "mA"
*HW_XG_FOCUS ""
*HW_XG_FOCUS_TYPE "Normal"
*HW_XG_ID ""
*HW_XG_NAME "9kW 開放管(45kV 200mA ID:1700)|9kW Rotating anode(45kV 200mA ID:1700)"
*HW_XG_TARGET_ATOMIC_NUMBER "29.0000000000"
*HW_XG_TARGET_NAME "Cu"
*HW_XG_TYPE "Rota"
*HW_XG_VOLTAGE_MAX "45"
*HW_XG_VOLTAGE_MIN "20"
*HW_XG_VOLTAGE_RESOLUTION "2"
*HW_XG_VOLTAGE_UNIT "kV"
*HW_XG_WATT_MAX "9"
*HW_XG_WATT_UNIT "kW"
*HW_XG_WAVE_LENGTH_ALPHA1 "1.540593"
*HW_XG_WAVE_LENGTH_ALPHA2 "1.544414"
*HW_XG_WAVE_LENGTH_BETA "1.392250"
*MEAS_COND_AXIS_NAME-0 "Theta/2-Theta"
*MEAS_COND_AXIS_NAME-1 "2-Theta"
*MEAS_COND_AXIS_NAME-2 "Omega"
*MEAS_COND_AXIS_NAME-3 "Z"
*MEAS_COND_AXIS_NAME-4 "2-Theta/Omega"
*MEAS_COND_AXIS_NAME-5 "Theta_s"
*MEAS_COND_AXIS_NAME-6 "Theta_d"
*MEAS_COND_AXIS_NAME-7 "Ts"
*MEAS_COND_AXIS_NAME-8 "CBO selection slit"
*MEAS_COND_AXIS_NAME-9 "M"
*MEAS_COND_AXIS_NAME-10 "Incident parallel slit"
*MEAS_COND_AXIS_NAME-11 "Incident slit"
*MEAS_COND_AXIS_NAME-12 ""
*MEAS_COND_AXIS_NAME-13 "Zs"
*MEAS_COND_AXIS_NAME-14 "Incident monochromator"
*MEAS_COND_AXIS_NAME-15 "Length limiting slit"
*MEAS_COND_AXIS_NAME-16 "Center slit"
*MEAS_COND_AXIS_NAME-17 "Filter"
*MEAS_COND_AXIS_NAME-18 "Receiving slit # 1"
*MEAS_COND_AXIS_NAME-19 "Receiving slit # 2"
*MEAS_COND_AXIS_NAME-20 "Receiving optical device"
*MEAS_COND_AXIS_NAME-21 "Receiving parallel slit"
*MEAS_COND_AXIS_NAME-22 "Alignment receiving slit"
*MEAS_COND_AXIS_NAME-23 ""
*MEAS_COND_AXIS_NAME-24 ""
*MEAS_COND_AXIS_NAME-25 "Zd"
*MEAS_COND_AXIS_NAME-26 "Attenuator"
*MEAS_COND_AXIS_NAME-27 "Diffracted beam monochromator"
*MEAS_COND_AXIS_NAME-28 "Monochromator slit"
*MEAS_COND_AXIS_NAME-29 "Primary beam"
*MEAS_COND_AXIS_NAME-30 "PHA"
*MEAS_COND_AXIS_NAME_INTERNAL-0 "TwoThetaTheta"
*MEAS_COND_AXIS_NAME_INTERNAL-1 "TwoTheta"
*MEAS_COND_AXIS_NAME_INTERNAL-2 "Omega"
*MEAS_COND_AXIS_NAME_INTERNAL-3 "Z"
*MEAS_COND_AXIS_NAME_INTERNAL-4 "TwoThetaOmega"
*MEAS_COND_AXIS_NAME_INTERNAL-5 "ThetaS"
*MEAS_COND_AXIS_NAME_INTERNAL-6 "ThetaD"
*MEAS_COND_AXIS_NAME_INTERNAL-7 "Ts"
*MEAS_COND_AXIS_NAME_INTERNAL-8 "CBO"
*MEAS_COND_AXIS_NAME_INTERNAL-9 "CBO-M"
*MEAS_COND_AXIS_NAME_INTERNAL-10 "IncidentSollerSlit"
*MEAS_COND_AXIS_NAME_INTERNAL-11 "IncidentSlitBox"
*MEAS_COND_AXIS_NAME_INTERNAL-12 "IncidentSlitBox-_Axis"
*MEAS_COND_AXIS_NAME_INTERNAL-13 "Zs"
*MEAS_COND_AXIS_NAME_INTERNAL-14 "IncidentMonochromator"
*MEAS_COND_AXIS_NAME_INTERNAL-15 "IncidentAxdSlit"
*MEAS_COND_AXIS_NAME_INTERNAL-16 "CenterSlit"
*MEAS_COND_AXIS_NAME_INTERNAL-17 "Filter"
*MEAS_COND_AXIS_NAME_INTERNAL-18 "ReceivingSlitBox1"
*MEAS_COND_AXIS_NAME_INTERNAL-19 "ReceivingSlitBox2"
*MEAS_COND_AXIS_NAME_INTERNAL-20 "ReceivingOptics"
*MEAS_COND_AXIS_NAME_INTERNAL-21 "ReceivingSollerSlit"
*MEAS_COND_AXIS_NAME_INTERNAL-22 "ReceivingAxdSlit"
*MEAS_COND_AXIS_NAME_INTERNAL-23 "ReceivingSlitBox1-_Axis"
*MEAS_COND_AXIS_NAME_INTERNAL-24 "ReceivingSlitBox2-_Axis"
*MEAS_COND_AXIS_NAME_INTERNAL-25 "ReceivingSlitBox2-Zd"
*MEAS_COND_AXIS_NAME_INTERNAL-26 "Attenuator"
*MEAS_COND_AXIS_NAME_INTERNAL-27 "CounterMonochromator"
*MEAS_COND_AXIS_NAME_INTERNAL-28 "CounterSlit"
*MEAS_COND_AXIS_NAME_INTERNAL-29 "IncidentPrimary"
*MEAS_COND_AXIS_NAME_INTERNAL-30 "PHA"
*MEAS_COND_AXIS_NAME_MAGICNO-0 "83951616.0000000000"
*MEAS_COND_AXIS_NAME_MAGICNO-1 "268632064.0000000000"
*MEAS_COND_AXIS_NAME_MAGICNO-2 "268500992.0000000000"
*MEAS_COND_AXIS_NAME_MAGICNO-3 "285278208.0000000000"
*MEAS_COND_AXIS_NAME_MAGICNO-4 "83951616.0000000000"
*MEAS_COND_AXIS_NAME_MAGICNO-5 "131072.0000000000"
*MEAS_COND_AXIS_NAME_MAGICNO-6 "131072.0000000000"
*MEAS_COND_AXIS_NAME_MAGICNO-7 "318898176.0000000000"
*MEAS_COND_AXIS_NAME_MAGICNO-8 "20971521.0000000000"
*MEAS_COND_AXIS_NAME_MAGICNO-9 "285343744.0000000000"
*MEAS_COND_AXIS_NAME_MAGICNO-10 "20971521.0000000000"
*MEAS_COND_AXIS_NAME_MAGICNO-11 "22020097.0000000000"
*MEAS_COND_AXIS_NAME_MAGICNO-12 "25165824.0000000000"
*MEAS_COND_AXIS_NAME_MAGICNO-13 "318898176.0000000000"
*MEAS_COND_AXIS_NAME_MAGICNO-14 "1.0000000000"
*MEAS_COND_AXIS_NAME_MAGICNO-15 "20971521.0000000000"
*MEAS_COND_AXIS_NAME_MAGICNO-16 "20971521.0000000000"
*MEAS_COND_AXIS_NAME_MAGICNO-17 "20971521.0000000000"
*MEAS_COND_AXIS_NAME_MAGICNO-18 "23068673.0000000000"
*MEAS_COND_AXIS_NAME_MAGICNO-19 "23068673.0000000000"
*MEAS_COND_AXIS_NAME_MAGICNO-20 "20971521.0000000000"
*MEAS_COND_AXIS_NAME_MAGICNO-21 "20971521.0000000000"
*MEAS_COND_AXIS_NAME_MAGICNO-22 "20971521.0000000000"
*MEAS_COND_AXIS_NAME_MAGICNO-23 "25165824.0000000000"
*MEAS_COND_AXIS_NAME_MAGICNO-24 "25165824.0000000000"
*MEAS_COND_AXIS_NAME_MAGICNO-25 "285343744.0000000000"
*MEAS_COND_AXIS_NAME_MAGICNO-26 "17301505.0000000000"
*MEAS_COND_AXIS_NAME_MAGICNO-27 "20971521.0000000000"
*MEAS_COND_AXIS_NAME_MAGICNO-28 "20971521.0000000000"
*MEAS_COND_AXIS_NAME_MAGICNO-29 "20971521.0000000000"
*MEAS_COND_AXIS_NAME_MAGICNO-30 "0.0000000000"
*MEAS_COND_AXIS_OFFSET-0 "-"
*MEAS_COND_AXIS_OFFSET-1 "0.2295000000"
*MEAS_COND_AXIS_OFFSET-2 "0.6931000000"
*MEAS_COND_AXIS_OFFSET-3 "-"
*MEAS_COND_AXIS_OFFSET-4 "-"
*MEAS_COND_AXIS_OFFSET-5 "0.6931000000"
*MEAS_COND_AXIS_OFFSET-6 "-0.4636000000"
*MEAS_COND_AXIS_OFFSET-7 "-"
*MEAS_COND_AXIS_OFFSET-8 "-"
*MEAS_COND_AXIS_OFFSET-9 "-"
*MEAS_COND_AXIS_OFFSET-10 "-"
*MEAS_COND_AXIS_OFFSET-11 "-"
*MEAS_COND_AXIS_OFFSET-12 "-"
*MEAS_COND_AXIS_OFFSET-13 "-"
*MEAS_COND_AXIS_OFFSET-14 "-"
*MEAS_COND_AXIS_OFFSET-15 "-"
*MEAS_COND_AXIS_OFFSET-16 "-"
*MEAS_COND_AXIS_OFFSET-17 "-"
*MEAS_COND_AXIS_OFFSET-18 "-"
*MEAS_COND_AXIS_OFFSET-19 "-"
*MEAS_COND_AXIS_OFFSET-20 "-"
*MEAS_COND_AXIS_OFFSET-21 "-"
*MEAS_COND_AXIS_OFFSET-22 "-"
*MEAS_COND_AXIS_OFFSET-23 "-"
*MEAS_COND_AXIS_OFFSET-24 "-"
*MEAS_COND_AXIS_OFFSET-25 "-"
*MEAS_COND_AXIS_OFFSET-26 "-"
*MEAS_COND_AXIS_OFFSET-27 "-"
*MEAS_COND_AXIS_OFFSET-28 "-"
*MEAS_COND_AXIS_OFFSET-29 "-"
*MEAS_COND_AXIS_OFFSET-30 "-"
*MEAS_COND_AXIS_POSITION-0 "0.0000000000"
*MEAS_COND_AXIS_POSITION-1 "0.0000000000"
*MEAS_COND_AXIS_POSITION-2 "0.0000000000"
*MEAS_COND_AXIS_POSITION-3 "0.0000000000"
*MEAS_COND_AXIS_POSITION-4 "0.0000000000"
*MEAS_COND_AXIS_POSITION-5 "0.0000000000"
*MEAS_COND_AXIS_POSITION-6 "0.0000000000"
*MEAS_COND_AXIS_POSITION-7 "-0.1069400000"
*MEAS_COND_AXIS_POSITION-8 "BB"
*MEAS_COND_AXIS_POSITION-9 "0.0000000000"
*MEAS_COND_AXIS_POSITION-10 "Soller_slit_5.0deg"
*MEAS_COND_AXIS_POSITION-11 "2/3deg"
*MEAS_COND_AXIS_POSITION-12 "2.2088000000"
*MEAS_COND_AXIS_POSITION-13 "0.6687500000"
*MEAS_COND_AXIS_POSITION-14 "0.0000000000"
*MEAS_COND_AXIS_POSITION-15 "10.0mm"
*MEAS_COND_AXIS_POSITION-16 "None"
*MEAS_COND_AXIS_POSITION-17 "Cu_K-beta"
*MEAS_COND_AXIS_POSITION-18 "20.000mm"
*MEAS_COND_AXIS_POSITION-19 "20.000mm"
*MEAS_COND_AXIS_POSITION-20 "No_unit"
*MEAS_COND_AXIS_POSITION-21 "Soller_slit_5.0deg"
*MEAS_COND_AXIS_POSITION-22 "None"
*MEAS_COND_AXIS_POSITION-23 "20.0000000000"
*MEAS_COND_AXIS_POSITION-24 "20.0000000000"
*MEAS_COND_AXIS_POSITION-25 "0.2378100000"
*MEAS_COND_AXIS_POSITION-26 "Open"
*MEAS_COND_AXIS_POSITION-27 "None"
*MEAS_COND_AXIS_POSITION-28 "None"
*MEAS_COND_AXIS_POSITION-29 "None"
*MEAS_COND_AXIS_POSITION-30 "35.0000000000"
*MEAS_COND_AXIS_UNIT-0 "deg"
*MEAS_COND_AXIS_UNIT-1 "deg"
*MEAS_COND_AXIS_UNIT-2 "deg"
*MEAS_COND_AXIS_UNIT-3 "mm"
*MEAS_COND_AXIS_UNIT-4 "deg"
*MEAS_COND_AXIS_UNIT-5 "deg"
*MEAS_COND_AXIS_UNIT-6 "deg"
*MEAS_COND_AXIS_UNIT-7 "mm"
*MEAS_COND_AXIS_UNIT-8 ""
*MEAS_COND_AXIS_UNIT-9 "pulse"
*MEAS_COND_AXIS_UNIT-10 ""
*MEAS_COND_AXIS_UNIT-11 ""
*MEAS_COND_AXIS_UNIT-12 "mm"
*MEAS_COND_AXIS_UNIT-13 "mm"
*MEAS_COND_AXIS_UNIT-14 ""
*MEAS_COND_AXIS_UNIT-15 ""
*MEAS_COND_AXIS_UNIT-16 ""
*MEAS_COND_AXIS_UNIT-17 ""
*MEAS_COND_AXIS_UNIT-18 ""
*MEAS_COND_AXIS_UNIT-19 ""
*MEAS_COND_AXIS_UNIT-20 ""
*MEAS_COND_AXIS_UNIT-21 ""
*MEAS_COND_AXIS_UNIT-22 ""
*MEAS_COND_AXIS_UNIT-23 "mm"
*MEAS_COND_AXIS_UNIT-24 "mm"
*MEAS_COND_AXIS_UNIT-25 "mm"
*MEAS_COND_AXIS_UNIT-26 ""
*MEAS_COND_AXIS_UNIT-27 ""
*MEAS_COND_AXIS_UNIT-28 ""
*MEAS_COND_AXIS_UNIT-29 ""
*MEAS_COND_AXIS_UNIT-30 "div"
*MEAS_COND_COUNTER_CNTLOSS_CORR "0.0000000000"
*MEAS_COND_COUNTER_PHABASE "35.0000000000"
*MEAS_COND_COUNTER_PHAWINDOW "15.0000000000"
*MEAS_COND_COUNTER_PHA_UNIT "div"
*MEAS_COND_COUNTER_TAUDIFF "30.0000000000"
*MEAS_COND_COUNTER_TAUINT "0.0000000000"
*MEAS_COND_IRRADIATION_MODE "OFF"
*MEAS_COND_IRRADIATION_WIDTH ""
*MEAS_COND_OPT_ATTR "Bragg-Brentano focusing"
*MEAS_COND_OPT_NAME "@BB focusing"
*MEAS_COND_UNSYMMETRIC_MODE "OFF"
*MEAS_COND_XG_CURRENT "150.0000000000"
*MEAS_COND_XG_VOLTAGE "40.0000000000"
*MEAS_COND_XG_WAVE_TYPE "Ka"
*MEAS_DATA_COUNT "3501.0000000000"
*MEAS_SCAN_AXIS_X "Theta/2-Theta"
*MEAS_SCAN_AXIS_X_INTERNAL "TwoThetaTheta"
*MEAS_SCAN_END_TIME "06/01/26 15:53:40"
*MEAS_SCAN_MODE "CONTINUOUS"
*MEAS_SCAN_MONITOR "0"
*MEAS_SCAN_RESOLUTION_X "0.0002"
*MEAS_SCAN_SPEED "10.0"
*MEAS_SCAN_SPEED_UNIT "deg/min"
*MEAS_SCAN_START "10.0000000000"
*MEAS_SCAN_START_TIME "06/01/26 15:45:59"
*MEAS_SCAN_STEP "0.0200000000"
*MEAS_SCAN_STOP "80.0000000000"
*MEAS_SCAN_UNIT_X "deg"
*MEAS_SCAN_UNIT_Y "counts"
*RAS_HEADER_END
*RAS_INT_START
10.0000 6602.0000 1.0000
10.0200 6259.0000 1.0000
10.0400 6387.0000 1.0000
10.0600 6481.0000 1.0000
10.0800 6312.0000 1.0000
10.1000 6373.0000 1.0000
10.1200 6531.0000 1.0000
10.1400 6406.0000 1.0000
10.1600 6318.0000 1.0000
10.1800 6597.0000 1.0000
10.2000 6491.0000 1.0000
10.2200 6445.0000 1.0000
10.2400 6392.0000 1.0000
10.2600 6320.0000 1.0000
10.2800 6420.0000 1.0000
10.3000 6285.0000 1.0000
10.3200 6524.0000 1.0000
10.3400 6336.0000 1.0000
10.3600 6215.0000 1.0000
10.3800 6172.0000 1.0000
10.4000 6296.0000 1.0000
10.4200 6365.0000 1.0000
10.4400 6286.0000 1.0000
10.4600 6208.0000 1.0000
10.4800 6175.0000 1.0000
10.5000 6199.0000 1.0000
10.5200 6204.0000 1.0000
10.5400 6257.0000 1.0000
10.5600 6275.0000 1.0000
10.5800 6183.0000 1.0000
10.6000 6312.0000 1.0000
10.6200 6149.0000 1.0000
10.6400 6193.0000 1.0000
10.6600 6268.0000 1.0000
10.6800 6056.0000 1.0000
10.7000 6064.0000 1.0000
10.7200 6115.0000 1.0000
10.7400 6130.0000 1.0000
10.7600 6041.0000 1.0000
10.7800 6150.0000 1.0000
10.8000 6101.0000 1.0000
10.8200 6050.0000 1.0000
10.8400 6038.0000 1.0000
10.8600 6115.0000 1.0000
10.8800 6111.0000 1.0000
10.9000 6081.0000 1.0000
10.9200 6049.0000 1.0000
10.9400 5894.0000 1.0000
10.9600 5984.0000 1.0000
10.9800 5984.0000 1.0000
11.0000 5833.0000 1.0000
11.0200 5974.0000 1.0000
11.0400 5890.0000 1.0000
11.0600 5938.0000 1.0000
11.0800 5972.0000 1.0000
11.1000 5961.0000 1.0000
11.1200 6007.0000 1.0000
11.1400 5920.0000 1.0000
11.1600 5887.0000 1.0000
11.1800 5882.0000 1.0000
11.2000 5916.0000 1.0000
11.2200 5804.0000 1.0000
11.2400 5749.0000 1.0000
11.2600 6009.0000 1.0000
11.2800 5859.0000 1.0000
11.3000 5953.0000 1.0000
11.3200 5880.0000 1.0000
11.3400 5748.0000 1.0000
11.3600 5860.0000 1.0000
11.3800 5798.0000 1.0000
11.4000 5762.0000 1.0000
11.4200 5724.0000 1.0000
11.4400 5805.0000 1.0000
11.4600 5738.0000 1.0000
11.4800 5627.0000 1.0000
11.5000 5759.0000 1.0000
11.5200 5713.0000 1.0000
11.5400 5807.0000 1.0000
11.5600 5718.0000 1.0000
11.5800 5664.0000 1.0000
11.6000 5581.0000 1.0000
11.6200 5666.0000 1.0000
11.6400 5600.0000 1.0000
11.6600 5633.0000 1.0000
11.6800 5622.0000 1.0000
11.7000 5658.0000 1.0000
11.7200 5626.0000 1.0000
11.7400 5680.0000 1.0000
11.7600 5548.0000 1.0000
11.7800 5651.0000 1.0000
11.8000 5417.0000 1.0000
11.8200 5584.0000 1.0000
11.8400 5569.0000 1.0000
11.8600 5506.0000 1.0000
11.8800 5700.0000 1.0000
11.9000 5524.0000 1.0000
11.9200 5415.0000 1.0000
11.9400 5528.0000 1.0000
11.9600 5460.0000 1.0000
11.9800 5433.0000 1.0000
12.0000 5397.0000 1.0000
12.0200 5500.0000 1.0000
12.0400 5381.0000 1.0000
12.0600 5470.0000 1.0000
12.0800 5523.0000 1.0000
12.1000 5375.0000 1.0000
12.1200 5313.0000 1.0000
12.1400 5338.0000 1.0000
12.1600 5366.0000 1.0000
12.1800 5344.0000 1.0000
12.2000 5503.0000 1.0000
12.2200 5359.0000 1.0000
12.2400 5319.0000 1.0000
12.2600 5238.0000 1.0000
12.2800 5361.0000 1.0000
12.3000 5226.0000 1.0000
12.3200 5142.0000 1.0000
12.3400 5207.0000 1.0000
12.3600 5238.0000 1.0000
12.3800 5134.0000 1.0000
12.4000 5200.0000 1.0000
12.4200 5181.0000 1.0000
12.4400 5251.0000 1.0000
12.4600 5047.0000 1.0000
12.4800 5115.0000 1.0000
12.5000 5186.0000 1.0000
12.5200 5116.0000 1.0000
12.5400 5154.0000 1.0000
12.5600 5126.0000 1.0000
12.5800 4994.0000 1.0000
12.6000 5068.0000 1.0000
12.6200 5140.0000 1.0000
12.6400 5064.0000 1.0000
12.6600 5123.0000 1.0000
12.6800 5102.0000 1.0000
12.7000 5039.0000 1.0000
12.7200 5170.0000 1.0000
12.7400 5116.0000 1.0000
12.7600 5002.0000 1.0000
12.7800 4970.0000 1.0000
12.8000 5047.0000 1.0000
12.8200 5051.0000 1.0000
12.8400 5055.0000 1.0000
12.8600 5091.0000 1.0000
12.8800 5138.0000 1.0000
12.9000 4990.0000 1.0000
12.9200 4900.0000 1.0000
12.9400 4982.0000 1.0000
12.9600 4975.0000 1.0000
12.9800 4925.0000 1.0000
13.0000 4917.0000 1.0000
13.0200 4866.0000 1.0000
13.0400 4907.0000 1.0000
13.0600 4872.0000 1.0000
13.0800 4850.0000 1.0000
13.1000 4864.0000 1.0000
13.1200 4966.0000 1.0000
13.1400 4905.0000 1.0000
13.1600 4897.0000 1.0000
13.1800 4901.0000 1.0000
13.2000 4839.0000 1.0000
13.2200 4802.0000 1.0000
13.2400 4785.0000 1.0000
13.2600 4812.0000 1.0000
13.2800 4909.0000 1.0000
13.3000 4687.0000 1.0000
13.3200 4792.0000 1.0000
13.3400 4839.0000 1.0000
13.3600 4826.0000 1.0000
13.3800 4709.0000 1.0000
13.4000 4852.0000 1.0000
13.4200 4800.0000 1.0000
13.4400 4714.0000 1.0000
13.4600 4729.0000 1.0000
13.4800 4695.0000 1.0000
13.5000 4775.0000 1.0000
13.5200 4788.0000 1.0000
13.5400 4626.0000 1.0000
13.5600 4648.0000 1.0000
13.5800 4610.0000 1.0000
13.6000 4730.0000 1.0000
13.6200 4669.0000 1.0000
13.6400 4612.0000 1.0000
13.6600 4593.0000 1.0000
13.6800 4718.0000 1.0000
13.7000 4560.0000 1.0000
13.7200 4615.0000 1.0000
13.7400 4531.0000 1.0000
13.7600 4647.0000 1.0000
13.7800 4615.0000 1.0000
13.8000 4615.0000 1.0000
13.8200 4502.0000 1.0000
13.8400 4571.0000 1.0000
13.8600 4582.0000 1.0000
13.8800 4520.0000 1.0000
13.9000 4526.0000 1.0000
13.9200 4527.0000 1.0000
13.9400 4610.0000 1.0000
13.9600 4411.0000 1.0000
13.9800 4371.0000 1.0000
14.0000 4409.0000 1.0000
14.0200 4471.0000 1.0000
14.0400 4509.0000 1.0000
14.0600 4478.0000 1.0000
14.0800 4348.0000 1.0000
14.1000 4323.0000 1.0000
14.1200 4486.0000 1.0000
14.1400 4435.0000 1.0000
14.1600 4434.0000 1.0000
14.1800 4335.0000 1.0000
14.2000 4398.0000 1.0000
14.2200 4304.0000 1.0000
14.2400 4403.0000 1.0000
14.2600 4374.0000 1.0000
14.2800 4453.0000 1.0000
14.3000 4392.0000 1.0000
14.3200 4374.0000 1.0000
14.3400 4371.0000 1.0000
14.3600 4285.0000 1.0000
14.3800 4376.0000 1.0000
14.4000 4420.0000 1.0000
14.4200 4328.0000 1.0000
14.4400 4189.0000 1.0000
14.4600 4364.0000 1.0000
14.4800 4229.0000 1.0000
14.5000 4248.0000 1.0000
14.5200 4304.0000 1.0000
14.5400 4261.0000 1.0000
14.5600 4223.0000 1.0000
14.5800 4212.0000 1.0000
14.6000 4230.0000 1.0000
14.6200 4136.0000 1.0000
14.6400 4197.0000 1.0000
14.6600 4191.0000 1.0000
14.6800 4161.0000 1.0000
14.7000 4183.0000 1.0000
14.7200 4119.0000 1.0000
14.7400 4240.0000 1.0000
14.7600 4120.0000 1.0000
14.7800 4211.0000 1.0000
14.8000 4164.0000 1.0000
14.8200 4117.0000 1.0000
14.8400 4142.0000 1.0000
14.8600 4139.0000 1.0000
14.8800 4148.0000 1.0000
14.9000 4112.0000 1.0000
14.9200 4043.0000 1.0000
14.9400 3985.0000 1.0000
14.9600 4061.0000 1.0000
14.9800 4082.0000 1.0000
15.0000 4060.0000 1.0000
15.0200 4121.0000 1.0000
15.0400 4135.0000 1.0000
15.0600 3904.0000 1.0000
15.0800 3975.0000 1.0000
15.1000 4018.0000 1.0000
15.1200 4044.0000 1.0000
15.1400 4025.0000 1.0000
15.1600 4083.0000 1.0000
15.1800 4007.0000 1.0000
15.2000 3859.0000 1.0000
15.2200 4041.0000 1.0000
15.2400 3943.0000 1.0000
15.2600 3868.0000 1.0000
15.2800 3919.0000 1.0000
15.3000 3967.0000 1.0000
15.3200 3992.0000 1.0000
15.3400 3811.0000 1.0000
15.3600 3880.0000 1.0000
15.3800 3811.0000 1.0000
15.4000 3859.0000 1.0000
15.4200 3846.0000 1.0000
15.4400 3968.0000 1.0000
15.4600 3904.0000 1.0000
15.4800 3773.0000 1.0000
15.5000 3875.0000 1.0000
15.5200 3854.0000 1.0000
15.5400 3842.0000 1.0000
15.5600 3751.0000 1.0000
15.5800 3715.0000 1.0000
15.6000 3716.0000 1.0000
15.6200 3712.0000 1.0000
15.6400 3814.0000 1.0000
15.6600 3748.0000 1.0000
15.6800 3841.0000 1.0000
15.7000 3795.0000 1.0000
15.7200 3716.0000 1.0000
15.7400 3890.0000 1.0000
15.7600 3851.0000 1.0000
15.7800 3681.0000 1.0000
15.8000 3721.0000 1.0000
15.8200 3751.0000 1.0000
15.8400 3731.0000 1.0000
15.8600 3804.0000 1.0000
15.8800 3762.0000 1.0000
15.9000 3717.0000 1.0000
15.9200 3606.0000 1.0000
15.9400 3647.0000 1.0000
15.9600 3697.0000 1.0000
15.9800 3678.0000 1.0000
16.0000 3491.0000 1.0000
16.0200 3599.0000 1.0000
16.0400 3655.0000 1.0000
16.0600 3676.0000 1.0000
16.0800 3655.0000 1.0000
16.1000 3707.0000 1.0000
16.1200 3648.0000 1.0000
16.1400 3629.0000 1.0000
16.1600 3613.0000 1.0000
16.1800 3539.0000 1.0000
16.2000 3562.0000 1.0000
16.2200 3555.0000 1.0000
16.2400 3645.0000 1.0000
16.2600 3592.0000 1.0000
16.2800 3596.0000 1.0000
16.3000 3533.0000 1.0000
16.3200 3597.0000 1.0000
16.3400 3508.0000 1.0000
16.3600 3569.0000 1.0000
16.3800 3556.0000 1.0000
16.4000 3487.0000 1.0000
16.4200 3541.0000 1.0000
16.4400 3625.0000 1.0000
16.4600 3527.0000 1.0000
16.4800 3477.0000 1.0000
16.5000 3541.0000 1.0000
16.5200 3472.0000 1.0000
16.5400 3497.0000 1.0000
16.5600 3410.0000 1.0000
16.5800 3470.0000 1.0000
16.6000 3418.0000 1.0000
16.6200 3443.0000 1.0000
16.6400 3390.0000 1.0000
16.6600 3435.0000 1.0000
16.6800 3448.0000 1.0000
16.7000 3435.0000 1.0000
16.7200 3467.0000 1.0000
16.7400 3383.0000 1.0000
16.7600 3335.0000 1.0000
16.7800 3406.0000 1.0000
16.8000 3460.0000 1.0000
16.8200 3431.0000 1.0000
16.8400 3412.0000 1.0000
16.8600 3299.0000 1.0000
16.8800 3274.0000 1.0000
16.9000 3363.0000 1.0000
16.9200 3371.0000 1.0000
16.9400 3346.0000 1.0000
16.9600 3374.0000 1.0000
16.9800 3262.0000 1.0000
17.0000 3461.0000 1.0000
17.0200 3299.0000 1.0000
17.0400 3334.0000 1.0000
17.0600 3344.0000 1.0000
17.0800 3351.0000 1.0000
17.1000 3324.0000 1.0000
17.1200 3312.0000 1.0000
17.1400 3239.0000 1.0000
17.1600 3261.0000 1.0000
17.1800 3405.0000 1.0000
17.2000 3311.0000 1.0000
17.2200 3324.0000 1.0000
17.2400 3284.0000 1.0000
17.2600 3211.0000 1.0000
17.2800 3224.0000 1.0000
17.3000 3332.0000 1.0000
17.3200 3261.0000 1.0000
17.3400 3300.0000 1.0000
17.3600 3271.0000 1.0000
17.3800 3209.0000 1.0000
17.4000 3252.0000 1.0000
17.4200 3228.0000 1.0000
17.4400 3205.0000 1.0000
17.4600 3216.0000 1.0000
17.4800 3186.0000 1.0000
17.5000 3161.0000 1.0000
17.5200 3264.0000 1.0000
17.5400 3231.0000 1.0000
17.5600 3189.0000 1.0000
17.5800 3183.0000 1.0000
17.6000 3248.0000 1.0000
17.6200 3147.0000 1.0000
17.6400 3199.0000 1.0000
17.6600 3163.0000 1.0000
17.6800 3181.0000 1.0000
17.7000 3225.0000 1.0000
17.7200 3249.0000 1.0000
17.7400 3172.0000 1.0000
17.7600 3202.0000 1.0000
17.7800 3221.0000 1.0000
17.8000 3254.0000 1.0000
17.8200 3193.0000 1.0000
17.8400 3149.0000 1.0000
17.8600 3185.0000 1.0000
17.8800 3219.0000 1.0000
17.9000 3178.0000 1.0000
17.9200 3189.0000 1.0000
17.9400 3169.0000 1.0000
17.9600 3172.0000 1.0000
17.9800 3216.0000 1.0000
18.0000 3199.0000 1.0000
18.0200 3128.0000 1.0000
18.0400 3135.0000 1.0000
18.0600 3059.0000 1.0000
18.0800 3060.0000 1.0000
18.1000 3143.0000 1.0000
18.1200 3137.0000 1.0000
18.1400 3123.0000 1.0000
18.1600 3152.0000 1.0000
18.1800 3113.0000 1.0000
18.2000 3114.0000 1.0000
18.2200 3136.0000 1.0000
18.2400 3009.0000 1.0000
18.2600 3151.0000 1.0000
18.2800 3057.0000 1.0000
18.3000 3125.0000 1.0000
18.3200 3117.0000 1.0000
18.3400 3019.0000 1.0000
18.3600 3071.0000 1.0000
18.3800 3052.0000 1.0000
18.4000 3047.0000 1.0000
18.4200 3048.0000 1.0000
18.4400 2989.0000 1.0000
18.4600 3041.0000 1.0000
18.4800 3057.0000 1.0000
18.5000 3022.0000 1.0000
18.5200 3019.0000 1.0000
18.5400 3030.0000 1.0000
18.5600 3027.0000 1.0000
18.5800 3002.0000 1.0000
18.6000 3005.0000 1.0000
18.6200 3090.0000 1.0000
18.6400 3074.0000 1.0000
18.6600 3068.0000 1.0000
18.6800 3045.0000 1.0000
18.7000 3063.0000 1.0000
18.7200 3076.0000 1.0000
18.7400 3000.0000 1.0000
18.7600 3030.0000 1.0000
18.7800 2967.0000 1.0000
18.8000 2970.0000 1.0000
18.8200 3003.0000 1.0000
18.8400 2993.0000 1.0000
18.8600 3018.0000 1.0000
18.8800 3036.0000 1.0000
18.9000 2991.0000 1.0000
18.9200 3041.0000 1.0000
18.9400 3015.0000 1.0000
18.9600 3044.0000 1.0000
18.9800 2974.0000 1.0000
19.0000 2997.0000 1.0000
19.0200 2983.0000 1.0000
19.0400 2958.0000 1.0000
19.0600 3024.0000 1.0000
19.0800 2917.0000 1.0000
19.1000 2882.0000 1.0000
19.1200 2906.0000 1.0000
19.1400 2967.0000 1.0000
19.1600 2916.0000 1.0000
19.1800 2863.0000 1.0000
19.2000 2948.0000 1.0000
19.2200 2945.0000 1.0000
19.2400 2881.0000 1.0000
19.2600 2930.0000 1.0000
19.2800 2868.0000 1.0000
19.3000 2989.0000 1.0000
19.3200 2940.0000 1.0000
19.3400 2943.0000 1.0000
19.3600 2892.0000 1.0000
19.3800 2824.0000 1.0000
19.4000 2940.0000 1.0000
19.4200 2880.0000 1.0000
19.4400 2797.0000 1.0000
19.4600 2974.0000 1.0000
19.4800 2859.0000 1.0000
19.5000 2865.0000 1.0000
19.5200 2970.0000 1.0000
19.5400 2873.0000 1.0000
19.5600 2888.0000 1.0000
19.5800 2942.0000 1.0000
19.6000 2965.0000 1.0000
19.6200 2900.0000 1.0000
19.6400 2943.0000 1.0000
19.6600 2824.0000 1.0000
19.6800 2832.0000 1.0000
19.7000 2899.0000 1.0000
19.7200 2951.0000 1.0000
19.7400 2851.0000 1.0000
19.7600 2808.0000 1.0000
19.7800 2846.0000 1.0000
19.8000 2788.0000 1.0000
19.8200 2938.0000 1.0000
19.8400 2833.0000 1.0000
19.8600 2840.0000 1.0000
19.8800 2862.0000 1.0000
19.9000 2798.0000 1.0000
19.9200 2927.0000 1.0000
19.9400 2861.0000 1.0000
19.9600 2862.0000 1.0000
19.9800 2959.0000 1.0000
20.0000 2889.0000 1.0000
20.0200 2906.0000 1.0000
20.0400 2906.0000 1.0000
20.0600 2903.0000 1.0000
20.0800 2887.0000 1.0000
20.1000 2869.0000 1.0000
20.1200 2907.0000 1.0000
20.1400 2920.0000 1.0000
20.1600 2814.0000 1.0000
20.1800 2908.0000 1.0000
20.2000 2898.0000 1.0000
20.2200 2798.0000 1.0000
20.2400 2867.0000 1.0000
20.2600 2864.0000 1.0000
20.2800 2798.0000 1.0000
20.3000 2908.0000 1.0000
20.3200 2851.0000 1.0000
20.3400 2895.0000 1.0000
20.3600 2832.0000 1.0000
20.3800 2852.0000 1.0000
20.4000 2858.0000 1.0000
20.4200 2874.0000 1.0000
20.4400 2852.0000 1.0000
20.4600 2824.0000 1.0000
20.4800 2883.0000 1.0000
20.5000 2805.0000 1.0000
20.5200 2771.0000 1.0000
20.5400 2804.0000 1.0000
20.5600 2788.0000 1.0000
20.5800 2735.0000 1.0000
20.6000 2892.0000 1.0000
20.6200 2798.0000 1.0000
20.6400 2707.0000 1.0000
20.6600 2745.0000 1.0000
20.6800 2732.0000 1.0000
20.7000 2766.0000 1.0000
20.7200 2744.0000 1.0000
20.7400 2860.0000 1.0000
20.7600 2890.0000 1.0000
20.7800 2896.0000 1.0000
20.8000 2887.0000 1.0000
20.8200 2836.0000 1.0000
20.8400 2845.0000 1.0000
20.8600 2759.0000 1.0000
20.8800 2720.0000 1.0000
20.9000 2727.0000 1.0000
20.9200 2799.0000 1.0000
20.9400 2723.0000 1.0000
20.9600 2831.0000 1.0000
20.9800 2838.0000 1.0000
21.0000 2736.0000 1.0000
21.0200 2881.0000 1.0000
21.0400 2771.0000 1.0000
21.0600 2738.0000 1.0000
21.0800 2761.0000 1.0000
21.1000 2886.0000 1.0000
21.1200 2854.0000 1.0000
21.1400 2771.0000 1.0000
21.1600 2774.0000 1.0000
21.1800 2723.0000 1.0000
21.2000 2823.0000 1.0000
21.2200 2763.0000 1.0000
21.2400 2833.0000 1.0000
21.2600 2842.0000 1.0000
21.2800 2780.0000 1.0000
21.3000 2808.0000 1.0000
21.3200 2812.0000 1.0000
21.3400 2701.0000 1.0000
21.3600 2786.0000 1.0000
21.3800 2789.0000 1.0000
21.4000 2886.0000 1.0000
21.4200 2783.0000 1.0000
21.4400 2717.0000 1.0000
21.4600 2771.0000 1.0000
21.4800 2827.0000 1.0000
21.5000 2836.0000 1.0000
21.5200 2889.0000 1.0000
21.5400 2828.0000 1.0000
21.5600 2696.0000 1.0000
21.5800 2806.0000 1.0000
21.6000 2739.0000 1.0000
21.6200 2827.0000 1.0000
21.6400 2802.0000 1.0000
21.6600 2854.0000 1.0000
21.6800 2689.0000 1.0000
21.7000 2840.0000 1.0000
21.7200 2819.0000 1.0000
21.7400 2759.0000 1.0000
21.7600 2761.0000 1.0000
21.7800 2779.0000 1.0000
21.8000 2825.0000 1.0000
21.8200 2738.0000 1.0000
21.8400 2775.0000 1.0000
21.8600 2831.0000 1.0000
21.8800 2774.0000 1.0000
21.9000 2875.0000 1.0000
21.9200 2847.0000 1.0000
21.9400 2841.0000 1.0000
21.9600 2766.0000 1.0000
21.9800 2705.0000 1.0000
22.0000 2801.0000 1.0000
22.0200 2770.0000 1.0000
22.0400 2739.0000 1.0000
22.0600 2768.0000 1.0000
22.0800 2855.0000 1.0000
22.1000 2804.0000 1.0000
22.1200 2830.0000 1.0000
22.1400 2804.0000 1.0000
22.1600 2868.0000 1.0000
22.1800 2852.0000 1.0000
22.2000 2797.0000 1.0000
22.2200 2827.0000 1.0000
22.2400 2818.0000 1.0000
22.2600 2916.0000 1.0000
22.2800 2882.0000 1.0000
22.3000 2966.0000 1.0000
22.3200 3022.0000 1.0000
22.3400 2932.0000 1.0000
22.3600 2925.0000 1.0000
22.3800 2918.0000 1.0000
22.4000 2949.0000 1.0000
22.4200 2866.0000 1.0000
22.4400 2857.0000 1.0000
22.4600 2871.0000 1.0000
22.4800 2930.0000 1.0000
22.5000 3017.0000 1.0000
22.5200 2863.0000 1.0000
22.5400 2866.0000 1.0000
22.5600 2920.0000 1.0000
22.5800 2979.0000 1.0000
22.6000 2957.0000 1.0000
22.6200 2961.0000 1.0000
22.6400 2961.0000 1.0000
22.6600 2893.0000 1.0000
22.6800 2954.0000 1.0000
22.7000 2770.0000 1.0000
22.7200 2890.0000 1.0000
22.7400 2974.0000 1.0000
22.7600 2909.0000 1.0000
22.7800 2889.0000 1.0000
22.8000 2905.0000 1.0000
22.8200 2906.0000 1.0000
22.8400 2807.0000 1.0000
22.8600 2732.0000 1.0000
22.8800 2913.0000 1.0000
22.9000 2809.0000 1.0000
22.9200 2892.0000 1.0000
22.9400 2845.0000 1.0000
22.9600 2903.0000 1.0000
22.9800 2998.0000 1.0000
23.0000 2892.0000 1.0000
23.0200 2857.0000 1.0000
23.0400 3010.0000 1.0000
23.0600 2836.0000 1.0000
23.0800 2919.0000 1.0000
23.1000 2850.0000 1.0000
23.1200 2920.0000 1.0000
23.1400 2972.0000 1.0000
23.1600 2834.0000 1.0000
23.1800 2918.0000 1.0000
23.2000 2965.0000 1.0000
23.2200 2941.0000 1.0000
23.2400 2967.0000 1.0000
23.2600 2994.0000 1.0000
23.2800 2981.0000 1.0000
23.3000 2813.0000 1.0000
23.3200 2936.0000 1.0000
23.3400 3009.0000 1.0000
23.3600 3070.0000 1.0000
23.3800 3010.0000 1.0000
23.4000 3032.0000 1.0000
23.4200 2950.0000 1.0000
23.4400 2990.0000 1.0000
23.4600 3003.0000 1.0000
23.4800 2990.0000 1.0000
23.5000 3083.0000 1.0000
23.5200 3078.0000 1.0000
23.5400 3148.0000 1.0000
23.5600 3030.0000 1.0000
23.5800 3009.0000 1.0000
23.6000 3199.0000 1.0000
23.6200 3151.0000 1.0000
23.6400 3127.0000 1.0000
23.6600 3118.0000 1.0000
23.6800 3205.0000 1.0000
23.7000 3173.0000 1.0000
23.7200 3243.0000 1.0000
23.7400 3190.0000 1.0000
23.7600 3293.0000 1.0000
23.7800 3388.0000 1.0000
23.8000 3200.0000 1.0000
23.8200 3373.0000 1.0000
23.8400 3448.0000 1.0000
23.8600 3468.0000 1.0000
23.8800 3426.0000 1.0000
23.9000 3552.0000 1.0000
23.9200 3635.0000 1.0000
23.9400 3696.0000 1.0000
23.9600 3627.0000 1.0000
23.9800 3700.0000 1.0000
24.0000 3907.0000 1.0000
24.0200 3794.0000 1.0000
24.0400 3808.0000 1.0000
24.0600 3762.0000 1.0000
24.0800 3927.0000 1.0000
24.1000 4043.0000 1.0000
24.1200 4052.0000 1.0000
24.1400 4121.0000 1.0000
24.1600 4213.0000 1.0000
24.1800 4241.0000 1.0000
24.2000 4405.0000 1.0000
24.2200 4488.0000 1.0000
24.2400 4474.0000 1.0000
24.2600 4702.0000 1.0000
24.2800 4881.0000 1.0000
24.3000 4857.0000 1.0000
24.3200 5093.0000 1.0000
24.3400 5185.0000 1.0000
24.3600 5513.0000 1.0000
24.3800 5696.0000 1.0000
24.4000 5802.0000 1.0000
24.4200 6037.0000 1.0000
24.4400 6413.0000 1.0000
24.4600 6814.0000 1.0000
24.4800 7248.0000 1.0000
24.5000 7559.0000 1.0000
24.5200 8050.0000 1.0000
24.5400 8577.0000 1.0000
24.5600 9106.0000 1.0000
24.5800 9738.0000 1.0000
24.6000 10482.0000 1.0000
24.6200 11110.0000 1.0000
24.6400 12004.0000 1.0000
24.6600 12755.0000 1.0000
24.6800 13791.0000 1.0000
24.7000 14972.0000 1.0000
24.7200 15896.0000 1.0000
24.7400 16912.0000 1.0000
24.7600 17700.0000 1.0000
24.7800 18749.0000 1.0000
24.8000 19781.0000 1.0000
24.8200 20611.0000 1.0000
24.8400 21323.0000 1.0000
24.8600 21718.0000 1.0000
24.8800 22154.0000 1.0000
24.9000 22480.0000 1.0000
24.9200 22625.0000 1.0000
24.9400 22539.0000 1.0000
24.9600 22267.0000 1.0000
24.9800 21974.0000 1.0000
25.0000 21331.0000 1.0000
25.0200 21020.0000 1.0000
25.0400 19705.0000 1.0000
25.0600 19084.0000 1.0000
25.0800 18634.0000 1.0000
25.1000 17752.0000 1.0000
25.1200 17110.0000 1.0000
25.1400 16261.0000 1.0000
25.1600 15742.0000 1.0000
25.1800 15066.0000 1.0000
25.2000 14588.0000 1.0000
25.2200 14203.0000 1.0000
25.2400 13704.0000 1.0000
25.2600 13116.0000 1.0000
25.2800 12754.0000 1.0000
25.3000 12476.0000 1.0000
25.3200 11836.0000 1.0000
25.3400 11506.0000 1.0000
25.3600 11124.0000 1.0000
25.3800 10787.0000 1.0000
25.4000 10626.0000 1.0000
25.4200 10357.0000 1.0000
25.4400 10068.0000 1.0000
25.4600 9909.0000 1.0000
25.4800 9533.0000 1.0000
25.5000 9303.0000 1.0000
25.5200 9137.0000 1.0000
25.5400 9060.0000 1.0000
25.5600 8814.0000 1.0000
25.5800 8549.0000 1.0000
25.6000 8295.0000 1.0000
25.6200 8243.0000 1.0000
25.6400 8262.0000 1.0000
25.6600 7951.0000 1.0000
25.6800 7905.0000 1.0000
25.7000 7821.0000 1.0000
25.7200 7710.0000 1.0000
25.7400 7674.0000 1.0000
25.7600 7525.0000 1.0000
25.7800 7407.0000 1.0000
25.8000 7461.0000 1.0000
25.8200 7439.0000 1.0000
25.8400 7483.0000 1.0000
25.8600 7411.0000 1.0000
25.8800 7273.0000 1.0000
25.9000 7372.0000 1.0000
25.9200 7354.0000 1.0000
25.9400 7210.0000 1.0000
25.9600 7217.0000 1.0000
25.9800 7137.0000 1.0000
26.0000 7183.0000 1.0000
26.0200 7262.0000 1.0000
26.0400 7481.0000 1.0000
26.0600 7441.0000 1.0000
26.0800 7379.0000 1.0000
26.1000 7434.0000 1.0000
26.1200 7595.0000 1.0000
26.1400 7651.0000 1.0000
26.1600 7742.0000 1.0000
26.1800 7889.0000 1.0000
26.2000 8213.0000 1.0000
26.2200 8365.0000 1.0000
26.2400 8558.0000 1.0000
26.2600 8881.0000 1.0000
26.2800 9517.0000 1.0000
26.3000 9931.0000 1.0000
26.3200 10659.0000 1.0000
26.3400 11517.0000 1.0000
26.3600 12025.0000 1.0000
26.3800 13221.0000 1.0000
26.4000 14411.0000 1.0000
26.4200 16115.0000 1.0000
26.4400 17763.0000 1.0000
26.4600 19874.0000 1.0000
26.4800 21931.0000 1.0000
26.5000 24304.0000 1.0000
26.5200 26869.0000 1.0000
26.5400 29045.0000 1.0000
26.5600 30852.0000 1.0000
26.5800 32083.0000 1.0000
26.6000 32589.0000 1.0000
26.6200 32423.0000 1.0000
26.6400 31211.0000 1.0000
26.6600 29671.0000 1.0000
26.6800 27384.0000 1.0000
26.7000 25591.0000 1.0000
26.7200 23656.0000 1.0000
26.7400 21860.0000 1.0000
26.7600 20265.0000 1.0000
26.7800 18668.0000 1.0000
26.8000 17453.0000 1.0000
26.8200 16554.0000 1.0000
26.8400 15628.0000 1.0000
26.8600 14829.0000 1.0000
26.8800 14251.0000 1.0000
26.9000 13582.0000 1.0000
26.9200 13087.0000 1.0000
26.9400 12828.0000 1.0000
26.9600 12287.0000 1.0000
26.9800 11815.0000 1.0000
27.0000 11513.0000 1.0000
27.0200 11296.0000 1.0000
27.0400 11134.0000 1.0000
27.0600 10834.0000 1.0000
27.0800 10846.0000 1.0000
27.1000 10575.0000 1.0000
27.1200 10383.0000 1.0000
27.1400 10285.0000 1.0000
27.1600 10022.0000 1.0000
27.1800 10096.0000 1.0000
27.2000 9868.0000 1.0000
27.2200 9784.0000 1.0000
27.2400 9663.0000 1.0000
27.2600 9633.0000 1.0000
27.2800 9682.0000 1.0000
27.3000 9750.0000 1.0000
27.3200 9811.0000 1.0000
27.3400 9838.0000 1.0000
27.3600 9677.0000 1.0000
27.3800 9460.0000 1.0000
27.4000 9606.0000 1.0000
27.4200 9810.0000 1.0000
27.4400 9654.0000 1.0000
27.4600 9713.0000 1.0000
27.4800 9935.0000 1.0000
27.5000 9890.0000 1.0000
27.5200 10141.0000 1.0000
27.5400 9965.0000 1.0000
27.5600 10130.0000 1.0000
27.5800 10275.0000 1.0000
27.6000 10378.0000 1.0000
27.6200 10515.0000 1.0000
27.6400 10713.0000 1.0000
27.6600 10849.0000 1.0000
27.6800 10837.0000 1.0000
27.7000 11142.0000 1.0000
27.7200 11524.0000 1.0000
27.7400 11848.0000 1.0000
27.7600 12323.0000 1.0000
27.7800 12585.0000 1.0000
27.8000 13208.0000 1.0000
27.8200 13505.0000 1.0000
27.8400 14358.0000 1.0000
27.8600 14919.0000 1.0000
27.8800 15208.0000 1.0000
27.9000 15996.0000 1.0000
27.9200 16736.0000 1.0000
27.9400 17994.0000 1.0000
27.9600 18794.0000 1.0000
27.9800 20087.0000 1.0000
28.0000 21124.0000 1.0000
28.0200 22488.0000 1.0000
28.0400 24119.0000 1.0000
28.0600 25570.0000 1.0000
28.0800 26801.0000 1.0000
28.1000 28236.0000 1.0000
28.1200 30237.0000 1.0000
28.1400 31293.0000 1.0000
28.1600 32480.0000 1.0000
28.1800 34354.0000 1.0000
28.2000 35405.0000 1.0000
28.2200 35652.0000 1.0000
28.2400 36583.0000 1.0000
28.2600 37420.0000 1.0000
28.2800 36987.0000 1.0000
28.3000 36712.0000 1.0000
28.3200 36460.0000 1.0000
28.3400 35695.0000 1.0000
28.3600 34561.0000 1.0000
28.3800 34230.0000 1.0000
28.4000 32949.0000 1.0000
28.4200 31387.0000 1.0000
28.4400 30249.0000 1.0000
28.4600 28948.0000 1.0000
28.4800 27598.0000 1.0000
28.5000 26387.0000 1.0000
28.5200 25219.0000 1.0000
28.5400 23862.0000 1.0000
28.5600 22738.0000 1.0000
28.5800 21438.0000 1.0000
28.6000 20701.0000 1.0000
28.6200 19765.0000 1.0000
28.6400 18660.0000 1.0000
28.6600 17814.0000 1.0000
28.6800 17000.0000 1.0000
28.7000 15878.0000 1.0000
28.7200 15533.0000 1.0000
28.7400 14736.0000 1.0000
28.7600 14274.0000 1.0000
28.7800 13647.0000 1.0000
28.8000 13138.0000 1.0000
28.8200 12641.0000 1.0000
28.8400 12064.0000 1.0000
28.8600 11829.0000 1.0000
28.8800 11439.0000 1.0000
28.9000 10873.0000 1.0000
28.9200 10789.0000 1.0000
28.9400 10116.0000 1.0000
28.9600 9915.0000 1.0000
28.9800 9562.0000 1.0000
29.0000 9236.0000 1.0000
29.0200 9056.0000 1.0000
29.0400 8786.0000 1.0000
29.0600 8572.0000 1.0000
29.0800 8497.0000 1.0000
29.1000 8234.0000 1.0000
29.1200 7929.0000 1.0000
29.1400 7663.0000 1.0000
29.1600 7545.0000 1.0000
29.1800 7439.0000 1.0000
29.2000 7201.0000 1.0000
29.2200 7196.0000 1.0000
29.2400 6985.0000 1.0000
29.2600 6805.0000 1.0000
29.2800 6678.0000 1.0000
29.3000 6486.0000 1.0000
29.3200 6447.0000 1.0000
29.3400 6378.0000 1.0000
29.3600 6189.0000 1.0000
29.3800 6078.0000 1.0000
29.4000 6121.0000 1.0000
29.4200 5826.0000 1.0000
29.4400 5822.0000 1.0000
29.4600 5824.0000 1.0000
29.4800 5575.0000 1.0000
29.5000 5494.0000 1.0000
29.5200 5424.0000 1.0000
29.5400 5393.0000 1.0000
29.5600 5224.0000 1.0000
29.5800 5225.0000 1.0000
29.6000 5147.0000 1.0000
29.6200 5048.0000 1.0000
29.6400 5062.0000 1.0000
29.6600 4943.0000 1.0000
29.6800 4905.0000 1.0000
29.7000 4843.0000 1.0000
29.7200 4832.0000 1.0000
29.7400 4790.0000 1.0000
29.7600 4638.0000 1.0000
29.7800 4665.0000 1.0000
29.8000 4566.0000 1.0000
29.8200 4603.0000 1.0000
29.8400 4422.0000 1.0000
29.8600 4437.0000 1.0000
29.8800 4319.0000 1.0000
29.9000 4357.0000 1.0000
29.9200 4253.0000 1.0000
29.9400 4216.0000 1.0000
29.9600 4145.0000 1.0000
29.9800 4182.0000 1.0000
30.0000 4103.0000 1.0000
30.0200 4074.0000 1.0000
30.0400 4056.0000 1.0000
30.0600 4092.0000 1.0000
30.0800 3944.0000 1.0000
30.1000 3988.0000 1.0000
30.1200 3939.0000 1.0000
30.1400 3927.0000 1.0000
30.1600 3843.0000 1.0000
30.1800 3882.0000 1.0000
30.2000 3827.0000 1.0000
30.2200 3862.0000 1.0000
30.2400 3766.0000 1.0000
30.2600 3790.0000 1.0000
30.2800 3815.0000 1.0000
30.3000 3702.0000 1.0000
30.3200 3793.0000 1.0000
30.3400 3691.0000 1.0000
30.3600 3602.0000 1.0000
30.3800 3563.0000 1.0000
30.4000 3572.0000 1.0000
30.4200 3433.0000 1.0000
30.4400 3452.0000 1.0000
30.4600 3461.0000 1.0000
30.4800 3529.0000 1.0000
30.5000 3411.0000 1.0000
30.5200 3477.0000 1.0000
30.5400 3407.0000 1.0000
30.5600 3359.0000 1.0000
30.5800 3388.0000 1.0000
30.6000 3374.0000 1.0000
30.6200 3284.0000 1.0000
30.6400 3275.0000 1.0000
30.6600 3283.0000 1.0000
30.6800 3259.0000 1.0000
30.7000 3079.0000 1.0000
30.7200 3199.0000 1.0000
30.7400 3069.0000 1.0000
30.7600 3134.0000 1.0000
30.7800 3147.0000 1.0000
30.8000 3115.0000 1.0000
30.8200 3138.0000 1.0000
30.8400 3046.0000 1.0000
30.8600 3053.0000 1.0000
30.8800 3079.0000 1.0000
30.9000 2942.0000 1.0000
30.9200 2883.0000 1.0000
30.9400 3049.0000 1.0000
30.9600 2945.0000 1.0000
30.9800 2963.0000 1.0000
31.0000 2890.0000 1.0000
31.0200 2954.0000 1.0000
31.0400 2937.0000 1.0000
31.0600 2868.0000 1.0000
31.0800 2979.0000 1.0000
31.1000 2992.0000 1.0000
31.1200 2958.0000 1.0000
31.1400 2862.0000 1.0000
31.1600 2811.0000 1.0000
31.1800 2863.0000 1.0000
31.2000 2756.0000 1.0000
31.2200 2852.0000 1.0000
31.2400 2821.0000 1.0000
31.2600 2844.0000 1.0000
31.2800 2707.0000 1.0000
31.3000 2776.0000 1.0000
31.3200 2790.0000 1.0000
31.3400 2802.0000 1.0000
31.3600 2729.0000 1.0000
31.3800 2786.0000 1.0000
31.4000 2770.0000 1.0000
31.4200 2807.0000 1.0000
31.4400 2770.0000 1.0000
31.4600 2698.0000 1.0000
31.4800 2681.0000 1.0000
31.5000 2726.0000 1.0000
31.5200 2708.0000 1.0000
31.5400 2787.0000 1.0000
31.5600 2725.0000 1.0000
31.5800 2587.0000 1.0000
31.6000 2574.0000 1.0000
31.6200 2636.0000 1.0000
31.6400 2648.0000 1.0000
31.6600 2681.0000 1.0000
31.6800 2590.0000 1.0000
31.7000 2565.0000 1.0000
31.7200 2625.0000 1.0000
31.7400 2652.0000 1.0000
31.7600 2571.0000 1.0000
31.7800 2659.0000 1.0000
31.8000 2629.0000 1.0000
31.8200 2528.0000 1.0000
31.8400 2590.0000 1.0000
31.8600 2579.0000 1.0000
31.8800 2587.0000 1.0000
31.9000 2569.0000 1.0000
31.9200 2606.0000 1.0000
31.9400 2599.0000 1.0000
31.9600 2580.0000 1.0000
31.9800 2539.0000 1.0000
32.0000 2569.0000 1.0000
32.0200 2558.0000 1.0000
32.0400 2480.0000 1.0000
32.0600 2517.0000 1.0000
32.0800 2491.0000 1.0000
32.1000 2504.0000 1.0000
32.1200 2482.0000 1.0000
32.1400 2524.0000 1.0000
32.1600 2510.0000 1.0000
32.1800 2496.0000 1.0000
32.2000 2493.0000 1.0000
32.2200 2542.0000 1.0000
32.2400 2493.0000 1.0000
32.2600 2519.0000 1.0000
32.2800 2455.0000 1.0000
32.3000 2430.0000 1.0000
32.3200 2434.0000 1.0000
32.3400 2466.0000 1.0000
32.3600 2442.0000 1.0000
32.3800 2425.0000 1.0000
32.4000 2461.0000 1.0000
32.4200 2350.0000 1.0000
32.4400 2389.0000 1.0000
32.4600 2408.0000 1.0000
32.4800 2502.0000 1.0000
32.5000 2406.0000 1.0000
32.5200 2497.0000 1.0000
32.5400 2477.0000 1.0000
32.5600 2470.0000 1.0000
32.5800 2519.0000 1.0000
32.6000 2431.0000 1.0000
32.6200 2387.0000 1.0000
32.6400 2457.0000 1.0000
32.6600 2453.0000 1.0000
32.6800 2441.0000 1.0000
32.7000 2419.0000 1.0000
32.7200 2416.0000 1.0000
32.7400 2403.0000 1.0000
32.7600 2420.0000 1.0000
32.7800 2470.0000 1.0000
32.8000 2431.0000 1.0000
32.8200 2407.0000 1.0000
32.8400 2436.0000 1.0000
32.8600 2399.0000 1.0000
32.8800 2437.0000 1.0000
32.9000 2370.0000 1.0000
32.9200 2387.0000 1.0000
32.9400 2425.0000 1.0000
32.9600 2469.0000 1.0000
32.9800 2450.0000 1.0000
33.0000 2357.0000 1.0000
33.0200 2468.0000 1.0000
33.0400 2375.0000 1.0000
33.0600 2451.0000 1.0000
33.0800 2357.0000 1.0000
33.1000 2320.0000 1.0000
33.1200 2390.0000 1.0000
33.1400 2390.0000 1.0000
33.1600 2404.0000 1.0000
33.1800 2415.0000 1.0000
33.2000 2429.0000 1.0000
33.2200 2361.0000 1.0000
33.2400 2395.0000 1.0000
33.2600 2256.0000 1.0000
33.2800 2321.0000 1.0000
33.3000 2248.0000 1.0000
33.3200 2343.0000 1.0000
33.3400 2295.0000 1.0000
33.3600 2381.0000 1.0000
33.3800 2331.0000 1.0000
33.4000 2284.0000 1.0000
33.4200 2375.0000 1.0000
33.4400 2245.0000 1.0000
33.4600 2217.0000 1.0000
33.4800 2237.0000 1.0000
33.5000 2351.0000 1.0000
33.5200 2319.0000 1.0000
33.5400 2325.0000 1.0000
33.5600 2305.0000 1.0000
33.5800 2276.0000 1.0000
33.6000 2289.0000 1.0000
33.6200 2233.0000 1.0000
33.6400 2288.0000 1.0000
33.6600 2315.0000 1.0000
33.6800 2272.0000 1.0000
33.7000 2281.0000 1.0000
33.7200 2249.0000 1.0000
33.7400 2245.0000 1.0000
33.7600 2216.0000 1.0000
33.7800 2257.0000 1.0000
33.8000 2293.0000 1.0000
33.8200 2188.0000 1.0000
33.8400 2226.0000 1.0000
33.8600 2231.0000 1.0000
33.8800 2267.0000 1.0000
33.9000 2260.0000 1.0000
33.9200 2183.0000 1.0000
33.9400 2248.0000 1.0000
33.9600 2203.0000 1.0000
33.9800 2324.0000 1.0000
34.0000 2224.0000 1.0000
34.0200 2328.0000 1.0000
34.0400 2240.0000 1.0000
34.0600 2223.0000 1.0000
34.0800 2280.0000 1.0000
34.1000 2265.0000 1.0000
34.1200 2241.0000 1.0000
34.1400 2250.0000 1.0000
34.1600 2282.0000 1.0000
34.1800 2155.0000 1.0000
34.2000 2207.0000 1.0000
34.2200 2249.0000 1.0000
34.2400 2264.0000 1.0000
34.2600 2254.0000 1.0000
34.2800 2274.0000 1.0000
34.3000 2191.0000 1.0000
34.3200 2245.0000 1.0000
34.3400 2262.0000 1.0000
34.3600 2296.0000 1.0000
34.3800 2230.0000 1.0000
34.4000 2222.0000 1.0000
34.4200 2222.0000 1.0000
34.4400 2275.0000 1.0000
34.4600 2161.0000 1.0000
34.4800 2248.0000 1.0000
34.5000 2278.0000 1.0000
34.5200 2235.0000 1.0000
34.5400 2219.0000 1.0000
34.5600 2134.0000 1.0000
34.5800 2256.0000 1.0000
34.6000 2230.0000 1.0000
34.6200 2234.0000 1.0000
34.6400 2276.0000 1.0000
34.6600 2340.0000 1.0000
34.6800 2300.0000 1.0000
34.7000 2266.0000 1.0000
34.7200 2266.0000 1.0000
34.7400 2237.0000 1.0000
34.7600 2183.0000 1.0000
34.7800 2196.0000 1.0000
34.8000 2210.0000 1.0000
34.8200 2227.0000 1.0000
34.8400 2269.0000 1.0000
34.8600 2222.0000 1.0000
34.8800 2315.0000 1.0000
34.9000 2213.0000 1.0000
34.9200 2321.0000 1.0000
34.9400 2209.0000 1.0000
34.9600 2196.0000 1.0000
34.9800 2228.0000 1.0000
35.0000 2315.0000 1.0000
35.0200 2257.0000 1.0000
35.0400 2278.0000 1.0000
35.0600 2304.0000 1.0000
35.0800 2341.0000 1.0000
35.1000 2328.0000 1.0000
35.1200 2296.0000 1.0000
35.1400 2280.0000 1.0000
35.1600 2417.0000 1.0000
35.1800 2415.0000 1.0000
35.2000 2283.0000 1.0000
35.2200 2388.0000 1.0000
35.2400 2439.0000 1.0000
35.2600 2433.0000 1.0000
35.2800 2452.0000 1.0000
35.3000 2425.0000 1.0000
35.3200 2364.0000 1.0000
35.3400 2380.0000 1.0000
35.3600 2420.0000 1.0000
35.3800 2419.0000 1.0000
35.4000 2410.0000 1.0000
35.4200 2515.0000 1.0000
35.4400 2366.0000 1.0000
35.4600 2464.0000 1.0000
35.4800 2523.0000 1.0000
35.5000 2498.0000 1.0000
35.5200 2544.0000 1.0000
35.5400 2522.0000 1.0000
35.5600 2551.0000 1.0000
35.5800 2522.0000 1.0000
35.6000 2543.0000 1.0000
35.6200 2583.0000 1.0000
35.6400 2586.0000 1.0000
35.6600 2754.0000 1.0000
35.6800 2714.0000 1.0000
35.7000 2717.0000 1.0000
35.7200 2681.0000 1.0000
35.7400 2651.0000 1.0000
35.7600 2706.0000 1.0000
35.7800 2781.0000 1.0000
35.8000 2838.0000 1.0000
35.8200 2774.0000 1.0000
35.8400 2781.0000 1.0000
35.8600 2880.0000 1.0000
35.8800 2830.0000 1.0000
35.9000 2857.0000 1.0000
35.9200 2984.0000 1.0000
35.9400 3017.0000 1.0000
35.9600 2990.0000 1.0000
35.9800 2996.0000 1.0000
36.0000 3125.0000 1.0000
36.0200 3129.0000 1.0000
36.0400 3195.0000 1.0000
36.0600 3168.0000 1.0000
36.0800 3217.0000 1.0000
36.1000 3316.0000 1.0000
36.1200 3358.0000 1.0000
36.1400 3428.0000 1.0000
36.1600 3533.0000 1.0000
36.1800 3579.0000 1.0000
36.2000 3578.0000 1.0000
36.2200 3734.0000 1.0000
36.2400 3743.0000 1.0000
36.2600 3879.0000 1.0000
36.2800 3948.0000 1.0000
36.3000 4075.0000 1.0000
36.3200 4120.0000 1.0000
36.3400 4206.0000 1.0000
36.3600 4283.0000 1.0000
36.3800 4437.0000 1.0000
36.4000 4512.0000 1.0000
36.4200 4708.0000 1.0000
36.4400 4848.0000 1.0000
36.4600 5042.0000 1.0000
36.4800 5163.0000 1.0000
36.5000 5360.0000 1.0000
36.5200 5426.0000 1.0000
36.5400 5574.0000 1.0000
36.5600 5596.0000 1.0000
36.5800 5925.0000 1.0000
36.6000 5924.0000 1.0000
36.6200 6084.0000 1.0000
36.6400 6282.0000 1.0000
36.6600 6347.0000 1.0000
36.6800 6532.0000 1.0000
36.7000 6700.0000 1.0000
36.7200 6554.0000 1.0000
36.7400 6733.0000 1.0000
36.7600 6787.0000 1.0000
36.7800 6762.0000 1.0000
36.8000 6771.0000 1.0000
36.8200 6731.0000 1.0000
36.8400 6708.0000 1.0000
36.8600 6647.0000 1.0000
36.8800 6613.0000 1.0000
36.9000 6442.0000 1.0000
36.9200 6277.0000 1.0000
36.9400 6142.0000 1.0000
36.9600 5972.0000 1.0000
36.9800 5966.0000 1.0000
37.0000 5765.0000 1.0000
37.0200 5706.0000 1.0000
37.0400 5512.0000 1.0000
37.0600 5442.0000 1.0000
37.0800 5412.0000 1.0000
37.1000 5220.0000 1.0000
37.1200 5097.0000 1.0000
37.1400 5056.0000 1.0000
37.1600 4989.0000 1.0000
37.1800 4757.0000 1.0000
37.2000 4860.0000 1.0000
37.2200 4571.0000 1.0000
37.2400 4530.0000 1.0000
37.2600 4351.0000 1.0000
37.2800 4296.0000 1.0000
37.3000 4200.0000 1.0000
37.3200 4254.0000 1.0000
37.3400 4022.0000 1.0000
37.3600 4008.0000 1.0000
37.3800 3961.0000 1.0000
37.4000 3898.0000 1.0000
37.4200 3792.0000 1.0000
37.4400 3844.0000 1.0000
37.4600 3781.0000 1.0000
37.4800 3724.0000 1.0000
37.5000 3617.0000 1.0000
37.5200 3465.0000 1.0000
37.5400 3481.0000 1.0000
37.5600 3436.0000 1.0000
37.5800 3376.0000 1.0000
37.6000 3352.0000 1.0000
37.6200 3289.0000 1.0000
37.6400 3311.0000 1.0000
37.6600 3219.0000 1.0000
37.6800 3175.0000 1.0000
37.7000 3144.0000 1.0000
37.7200 3055.0000 1.0000
37.7400 3071.0000 1.0000
37.7600 3023.0000 1.0000
37.7800 2987.0000 1.0000
37.8000 2990.0000 1.0000
37.8200 2920.0000 1.0000
37.8400 2844.0000 1.0000
37.8600 2984.0000 1.0000
37.8800 2903.0000 1.0000
37.9000 2828.0000 1.0000
37.9200 2898.0000 1.0000
37.9400 2852.0000 1.0000
37.9600 2682.0000 1.0000
37.9800 2705.0000 1.0000
38.0000 2719.0000 1.0000
38.0200 2733.0000 1.0000
38.0400 2688.0000 1.0000
38.0600 2661.0000 1.0000
38.0800 2612.0000 1.0000
38.1000 2676.0000 1.0000
38.1200 2634.0000 1.0000
38.1400 2692.0000 1.0000
38.1600 2586.0000 1.0000
38.1800 2542.0000 1.0000
38.2000 2589.0000 1.0000
38.2200 2542.0000 1.0000
38.2400 2495.0000 1.0000
38.2600 2451.0000 1.0000
38.2800 2555.0000 1.0000
38.3000 2456.0000 1.0000
38.3200 2458.0000 1.0000
38.3400 2425.0000 1.0000
38.3600 2381.0000 1.0000
38.3800 2431.0000 1.0000
38.4000 2424.0000 1.0000
38.4200 2504.0000 1.0000
38.4400 2358.0000 1.0000
38.4600 2380.0000 1.0000
38.4800 2356.0000 1.0000
38.5000 2355.0000 1.0000
38.5200 2344.0000 1.0000
38.5400 2371.0000 1.0000
38.5600 2427.0000 1.0000
38.5800 2357.0000 1.0000
38.6000 2360.0000 1.0000
38.6200 2335.0000 1.0000
38.6400 2310.0000 1.0000
38.6600 2339.0000 1.0000
38.6800 2334.0000 1.0000
38.7000 2272.0000 1.0000
38.7200 2183.0000 1.0000
38.7400 2265.0000 1.0000
38.7600 2258.0000 1.0000
38.7800 2303.0000 1.0000
38.8000 2261.0000 1.0000
38.8200 2265.0000 1.0000
38.8400 2234.0000 1.0000
38.8600 2399.0000 1.0000
38.8800 2314.0000 1.0000
38.9000 2277.0000 1.0000
38.9200 2396.0000 1.0000
38.9400 2378.0000 1.0000
38.9600 2264.0000 1.0000
38.9800 2254.0000 1.0000
39.0000 2303.0000 1.0000
39.0200 2218.0000 1.0000
39.0400 2191.0000 1.0000
39.0600 2243.0000 1.0000
39.0800 2280.0000 1.0000
39.1000 2189.0000 1.0000
39.1200 2243.0000 1.0000
39.1400 2197.0000 1.0000
39.1600 2225.0000 1.0000
39.1800 2265.0000 1.0000
39.2000 2286.0000 1.0000
39.2200 2246.0000 1.0000
39.2400 2281.0000 1.0000
39.2600 2171.0000 1.0000
39.2800 2299.0000 1.0000
39.3000 2256.0000 1.0000
39.3200 2317.0000 1.0000
39.3400 2238.0000 1.0000
39.3600 2241.0000 1.0000
39.3800 2300.0000 1.0000
39.4000 2180.0000 1.0000
39.4200 2194.0000 1.0000
39.4400 2218.0000 1.0000
39.4600 2183.0000 1.0000
39.4800 2268.0000 1.0000
39.5000 2224.0000 1.0000
39.5200 2238.0000 1.0000
39.5400 2265.0000 1.0000
39.5600 2193.0000 1.0000
39.5800 2128.0000 1.0000
39.6000 2228.0000 1.0000
39.6200 2188.0000 1.0000
39.6400 2203.0000 1.0000
39.6600 2171.0000 1.0000
39.6800 2228.0000 1.0000
39.7000 2179.0000 1.0000
39.7200 2176.0000 1.0000
39.7400 2134.0000 1.0000
39.7600 2096.0000 1.0000
39.7800 2220.0000 1.0000
39.8000 2196.0000 1.0000
39.8200 2069.0000 1.0000
39.8400 2163.0000 1.0000
39.8600 2178.0000 1.0000
39.8800 2132.0000 1.0000
39.9000 2164.0000 1.0000
39.9200 2155.0000 1.0000
39.9400 2150.0000 1.0000
39.9600 2149.0000 1.0000
39.9800 2111.0000 1.0000
40.0000 2103.0000 1.0000
40.0200 2051.0000 1.0000
40.0400 2066.0000 1.0000
40.0600 2157.0000 1.0000
40.0800 2129.0000 1.0000
40.1000 2040.0000 1.0000
40.1200 2015.0000 1.0000
40.1400 2036.0000 1.0000
40.1600 2098.0000 1.0000
40.1800 2105.0000 1.0000
40.2000 2095.0000 1.0000
40.2200 2042.0000 1.0000
40.2400 2044.0000 1.0000
40.2600 2020.0000 1.0000
40.2800 2030.0000 1.0000
40.3000 2105.0000 1.0000
40.3200 2140.0000 1.0000
40.3400 2086.0000 1.0000
40.3600 2168.0000 1.0000
40.3800 2069.0000 1.0000
40.4000 2091.0000 1.0000
40.4200 2065.0000 1.0000
40.4400 2017.0000 1.0000
40.4600 2114.0000 1.0000
40.4800 2086.0000 1.0000
40.5000 2088.0000 1.0000
40.5200 2029.0000 1.0000
40.5400 2121.0000 1.0000
40.5600 2106.0000 1.0000
40.5800 2054.0000 1.0000
40.6000 2083.0000 1.0000
40.6200 1993.0000 1.0000
40.6400 2019.0000 1.0000
40.6600 2072.0000 1.0000
40.6800 2064.0000 1.0000
40.7000 2023.0000 1.0000
40.7200 2013.0000 1.0000
40.7400 2011.0000 1.0000
40.7600 2124.0000 1.0000
40.7800 2078.0000 1.0000
40.8000 2044.0000 1.0000
40.8200 2094.0000 1.0000
40.8400 2046.0000 1.0000
40.8600 2009.0000 1.0000
40.8800 2070.0000 1.0000
40.9000 2087.0000 1.0000
40.9200 2041.0000 1.0000
40.9400 2133.0000 1.0000
40.9600 2036.0000 1.0000
40.9800 2092.0000 1.0000
41.0000 2056.0000 1.0000
41.0200 2086.0000 1.0000
41.0400 2040.0000 1.0000
41.0600 2002.0000 1.0000
41.0800 2163.0000 1.0000
41.1000 2083.0000 1.0000
41.1200 2107.0000 1.0000
41.1400 2093.0000 1.0000
41.1600 2094.0000 1.0000
41.1800 2070.0000 1.0000
41.2000 2076.0000 1.0000
41.2200 2063.0000 1.0000
41.2400 2163.0000 1.0000
41.2600 2093.0000 1.0000
41.2800 2066.0000 1.0000
41.3000 2058.0000 1.0000
41.3200 2130.0000 1.0000
41.3400 2082.0000 1.0000
41.3600 2111.0000 1.0000
41.3800 2062.0000 1.0000
41.4000 2108.0000 1.0000
41.4200 2064.0000 1.0000
41.4400 2109.0000 1.0000
41.4600 2118.0000 1.0000
41.4800 2105.0000 1.0000
41.5000 2131.0000 1.0000
41.5200 2125.0000 1.0000
41.5400 2121.0000 1.0000
41.5600 2085.0000 1.0000
41.5800 2161.0000 1.0000
41.6000 2153.0000 1.0000
41.6200 2046.0000 1.0000
41.6400 2087.0000 1.0000
41.6600 2110.0000 1.0000
41.6800 2090.0000 1.0000
41.7000 2134.0000 1.0000
41.7200 2167.0000 1.0000
41.7400 2142.0000 1.0000
41.7600 2160.0000 1.0000
41.7800 2149.0000 1.0000
41.8000 2108.0000 1.0000
41.8200 2096.0000 1.0000
41.8400 2124.0000 1.0000
41.8600 2176.0000 1.0000
41.8800 2159.0000 1.0000
41.9000 2233.0000 1.0000
41.9200 2172.0000 1.0000
41.9400 2061.0000 1.0000
41.9600 2225.0000 1.0000
41.9800 2256.0000 1.0000
42.0000 2241.0000 1.0000
42.0200 2140.0000 1.0000
42.0400 2258.0000 1.0000
42.0600 2234.0000 1.0000
42.0800 2178.0000 1.0000
42.1000 2233.0000 1.0000
42.1200 2210.0000 1.0000
42.1400 2233.0000 1.0000
42.1600 2279.0000 1.0000
42.1800 2270.0000 1.0000
42.2000 2275.0000 1.0000
42.2200 2333.0000 1.0000
42.2400 2242.0000 1.0000
42.2600 2353.0000 1.0000
42.2800 2309.0000 1.0000
42.3000 2304.0000 1.0000
42.3200 2333.0000 1.0000
42.3400 2323.0000 1.0000
42.3600 2299.0000 1.0000
42.3800 2365.0000 1.0000
42.4000 2463.0000 1.0000
42.4200 2396.0000 1.0000
42.4400 2419.0000 1.0000
42.4600 2423.0000 1.0000
42.4800 2503.0000 1.0000
42.5000 2553.0000 1.0000
42.5200 2580.0000 1.0000
42.5400 2483.0000 1.0000
42.5600 2505.0000 1.0000
42.5800 2525.0000 1.0000
42.6000 2557.0000 1.0000
42.6200 2612.0000 1.0000
42.6400 2629.0000 1.0000
42.6600 2595.0000 1.0000
42.6800 2617.0000 1.0000
42.7000 2761.0000 1.0000
42.7200 2731.0000 1.0000
42.7400 2662.0000 1.0000
42.7600 2787.0000 1.0000
42.7800 2800.0000 1.0000
42.8000 2817.0000 1.0000
42.8200 2776.0000 1.0000
42.8400 2854.0000 1.0000
42.8600 2932.0000 1.0000
42.8800 2947.0000 1.0000
42.9000 3037.0000 1.0000
42.9200 3050.0000 1.0000
42.9400 3113.0000 1.0000
42.9600 3234.0000 1.0000
42.9800 3254.0000 1.0000
43.0000 3314.0000 1.0000
43.0200 3309.0000 1.0000
43.0400 3418.0000 1.0000
43.0600 3417.0000 1.0000
43.0800 3454.0000 1.0000
43.1000 3738.0000 1.0000
43.1200 3790.0000 1.0000
43.1400 3783.0000 1.0000
43.1600 3970.0000 1.0000
43.1800 3962.0000 1.0000
43.2000 4194.0000 1.0000
43.2200 4176.0000 1.0000
43.2400 4460.0000 1.0000
43.2600 4545.0000 1.0000
43.2800 4752.0000 1.0000
43.3000 4870.0000 1.0000
43.3200 5117.0000 1.0000
43.3400 5375.0000 1.0000
43.3600 5625.0000 1.0000
43.3800 5827.0000 1.0000
43.4000 6022.0000 1.0000
43.4200 6389.0000 1.0000
43.4400 6651.0000 1.0000
43.4600 7050.0000 1.0000
43.4800 7291.0000 1.0000
43.5000 7681.0000 1.0000
43.5200 7864.0000 1.0000
43.5400 8349.0000 1.0000
43.5600 8867.0000 1.0000
43.5800 9419.0000 1.0000
43.6000 9773.0000 1.0000
43.6200 10126.0000 1.0000
43.6400 10679.0000 1.0000
43.6600 11125.0000 1.0000
43.6800 11487.0000 1.0000
43.7000 11873.0000 1.0000
43.7200 12147.0000 1.0000
43.7400 12461.0000 1.0000
43.7600 13077.0000 1.0000
43.7800 13449.0000 1.0000
43.8000 13641.0000 1.0000
43.8200 13911.0000 1.0000
43.8400 14080.0000 1.0000
43.8600 13910.0000 1.0000
43.8800 14332.0000 1.0000
43.9000 13852.0000 1.0000
43.9200 13971.0000 1.0000
43.9400 13731.0000 1.0000
43.9600 13539.0000 1.0000
43.9800 13441.0000 1.0000
44.0000 12957.0000 1.0000
44.0200 12617.0000 1.0000
44.0400 12360.0000 1.0000
44.0600 12030.0000 1.0000
44.0800 11715.0000 1.0000
44.1000 11352.0000 1.0000
44.1200 10998.0000 1.0000
44.1400 10733.0000 1.0000
44.1600 10431.0000 1.0000
44.1800 10142.0000 1.0000
44.2000 9809.0000 1.0000
44.2200 9534.0000 1.0000
44.2400 9045.0000 1.0000
44.2600 8916.0000 1.0000
44.2800 8762.0000 1.0000
44.3000 8396.0000 1.0000
44.3200 8029.0000 1.0000
44.3400 8004.0000 1.0000
44.3600 7874.0000 1.0000
44.3800 7649.0000 1.0000
44.4000 7488.0000 1.0000
44.4200 7233.0000 1.0000
44.4400 7047.0000 1.0000
44.4600 6991.0000 1.0000
44.4800 6896.0000 1.0000
44.5000 6623.0000 1.0000
44.5200 6484.0000 1.0000
44.5400 6491.0000 1.0000
44.5600 6314.0000 1.0000
44.5800 6078.0000 1.0000
44.6000 6237.0000 1.0000
44.6200 6014.0000 1.0000
44.6400 5873.0000 1.0000
44.6600 5741.0000 1.0000
44.6800 5772.0000 1.0000
44.7000 5702.0000 1.0000
44.7200 5530.0000 1.0000
44.7400 5378.0000 1.0000
44.7600 5283.0000 1.0000
44.7800 5338.0000 1.0000
44.8000 5228.0000 1.0000
44.8200 5177.0000 1.0000
44.8400 5019.0000 1.0000
44.8600 4921.0000 1.0000
44.8800 4806.0000 1.0000
44.9000 4813.0000 1.0000
44.9200 4874.0000 1.0000
44.9400 4815.0000 1.0000
44.9600 4720.0000 1.0000
44.9800 4688.0000 1.0000
45.0000 4595.0000 1.0000
45.0200 4488.0000 1.0000
45.0400 4524.0000 1.0000
45.0600 4451.0000 1.0000
45.0800 4450.0000 1.0000
45.1000 4525.0000 1.0000
45.1200 4393.0000 1.0000
45.1400 4367.0000 1.0000
45.1600 4324.0000 1.0000
45.1800 4299.0000 1.0000
45.2000 4230.0000 1.0000
45.2200 4281.0000 1.0000
45.2400 4225.0000 1.0000
45.2600 4068.0000 1.0000
45.2800 4101.0000 1.0000
45.3000 4125.0000 1.0000
45.3200 4018.0000 1.0000
45.3400 3956.0000 1.0000
45.3600 4062.0000 1.0000
45.3800 4109.0000 1.0000
45.4000 3905.0000 1.0000
45.4200 4168.0000 1.0000
45.4400 4000.0000 1.0000
45.4600 3882.0000 1.0000
45.4800 3966.0000 1.0000
45.5000 3982.0000 1.0000
45.5200 3947.0000 1.0000
45.5400 3927.0000 1.0000
45.5600 3813.0000 1.0000
45.5800 3907.0000 1.0000
45.6000 3906.0000 1.0000
45.6200 3879.0000 1.0000
45.6400 3802.0000 1.0000
45.6600 3783.0000 1.0000
45.6800 3864.0000 1.0000
45.7000 3775.0000 1.0000
45.7200 3711.0000 1.0000
45.7400 3697.0000 1.0000
45.7600 3665.0000 1.0000
45.7800 3723.0000 1.0000
45.8000 3690.0000 1.0000
45.8200 3640.0000 1.0000
45.8400 3644.0000 1.0000
45.8600 3704.0000 1.0000
45.8800 3638.0000 1.0000
45.9000 3691.0000 1.0000
45.9200 3708.0000 1.0000
45.9400 3649.0000 1.0000
45.9600 3669.0000 1.0000
45.9800 3681.0000 1.0000
46.0000 3628.0000 1.0000
46.0200 3701.0000 1.0000
46.0400 3609.0000 1.0000
46.0600 3621.0000 1.0000
46.0800 3615.0000 1.0000
46.1000 3754.0000 1.0000
46.1200 3639.0000 1.0000
46.1400 3591.0000 1.0000
46.1600 3642.0000 1.0000
46.1800 3626.0000 1.0000
46.2000 3644.0000 1.0000
46.2200 3726.0000 1.0000
46.2400 3614.0000 1.0000
46.2600 3665.0000 1.0000
46.2800 3665.0000 1.0000
46.3000 3648.0000 1.0000
46.3200 3588.0000 1.0000
46.3400 3678.0000 1.0000
46.3600 3724.0000 1.0000
46.3800 3640.0000 1.0000
46.4000 3755.0000 1.0000
46.4200 3639.0000 1.0000
46.4400 3838.0000 1.0000
46.4600 3595.0000 1.0000
46.4800 3770.0000 1.0000
46.5000 3855.0000 1.0000
46.5200 3792.0000 1.0000
46.5400 3740.0000 1.0000
46.5600 3810.0000 1.0000
46.5800 3931.0000 1.0000
46.6000 3832.0000 1.0000
46.6200 3872.0000 1.0000
46.6400 3812.0000 1.0000
46.6600 3907.0000 1.0000
46.6800 3878.0000 1.0000
46.7000 3971.0000 1.0000
46.7200 3972.0000 1.0000
46.7400 4060.0000 1.0000
46.7600 3993.0000 1.0000
46.7800 4082.0000 1.0000
46.8000 4032.0000 1.0000
46.8200 4177.0000 1.0000
46.8400 4212.0000 1.0000
46.8600 4111.0000 1.0000
46.8800 4183.0000 1.0000
46.9000 4218.0000 1.0000
46.9200 4372.0000 1.0000
46.9400 4323.0000 1.0000
46.9600 4186.0000 1.0000
46.9800 4398.0000 1.0000
47.0000 4487.0000 1.0000
47.0200 4583.0000 1.0000
47.0400 4541.0000 1.0000
47.0600 4600.0000 1.0000
47.0800 4687.0000 1.0000
47.1000 4842.0000 1.0000
47.1200 4888.0000 1.0000
47.1400 4876.0000 1.0000
47.1600 4953.0000 1.0000
47.1800 5037.0000 1.0000
47.2000 5198.0000 1.0000
47.2200 5224.0000 1.0000
47.2400 5308.0000 1.0000
47.2600 5524.0000 1.0000
47.2800 5578.0000 1.0000
47.3000 5664.0000 1.0000
47.3200 5859.0000 1.0000
47.3400 6011.0000 1.0000
47.3600 6042.0000 1.0000
47.3800 6146.0000 1.0000
47.4000 6391.0000 1.0000
47.4200 6414.0000 1.0000
47.4400 6547.0000 1.0000
47.4600 6796.0000 1.0000
47.4800 6964.0000 1.0000
47.5000 6986.0000 1.0000
47.5200 7152.0000 1.0000
47.5400 7306.0000 1.0000
47.5600 7430.0000 1.0000
47.5800 7649.0000 1.0000
47.6000 7606.0000 1.0000
47.6200 7858.0000 1.0000
47.6400 7932.0000 1.0000
47.6600 8279.0000 1.0000
47.6800 8167.0000 1.0000
47.7000 8431.0000 1.0000
47.7200 8812.0000 1.0000
47.7400 8913.0000 1.0000
47.7600 9087.0000 1.0000
47.7800 9777.0000 1.0000
47.8000 9744.0000 1.0000
47.8200 10175.0000 1.0000
47.8400 10645.0000 1.0000
47.8600 10522.0000 1.0000
47.8800 11077.0000 1.0000
47.9000 11312.0000 1.0000
47.9200 11250.0000 1.0000
47.9400 11793.0000 1.0000
47.9600 11988.0000 1.0000
47.9800 12106.0000 1.0000
48.0000 12348.0000 1.0000
48.0200 12233.0000 1.0000
48.0400 12252.0000 1.0000
48.0600 12192.0000 1.0000
48.0800 12099.0000 1.0000
48.1000 12428.0000 1.0000
48.1200 12222.0000 1.0000
48.1400 11992.0000 1.0000
48.1600 11744.0000 1.0000
48.1800 11463.0000 1.0000
48.2000 11376.0000 1.0000
48.2200 11092.0000 1.0000
48.2400 10591.0000 1.0000
48.2600 10566.0000 1.0000
48.2800 9976.0000 1.0000
48.3000 10029.0000 1.0000
48.3200 9691.0000 1.0000
48.3400 9382.0000 1.0000
48.3600 9247.0000 1.0000
48.3800 8856.0000 1.0000
48.4000 8715.0000 1.0000
48.4200 8343.0000 1.0000
48.4400 8046.0000 1.0000
48.4600 7914.0000 1.0000
48.4800 7661.0000 1.0000
48.5000 7533.0000 1.0000
48.5200 7303.0000 1.0000
48.5400 7245.0000 1.0000
48.5600 6960.0000 1.0000
48.5800 6760.0000 1.0000
48.6000 6609.0000 1.0000
48.6200 6628.0000 1.0000
48.6400 6342.0000 1.0000
48.6600 6234.0000 1.0000
48.6800 6089.0000 1.0000
48.7000 6009.0000 1.0000
48.7200 5876.0000 1.0000
48.7400 5785.0000 1.0000
48.7600 5666.0000 1.0000
48.7800 5500.0000 1.0000
48.8000 5490.0000 1.0000
48.8200 5350.0000 1.0000
48.8400 5217.0000 1.0000
48.8600 5179.0000 1.0000
48.8800 4971.0000 1.0000
48.9000 4913.0000 1.0000
48.9200 4929.0000 1.0000
48.9400 4881.0000 1.0000
48.9600 4773.0000 1.0000
48.9800 4821.0000 1.0000
49.0000 4596.0000 1.0000
49.0200 4640.0000 1.0000
49.0400 4517.0000 1.0000
49.0600 4449.0000 1.0000
49.0800 4269.0000 1.0000
49.1000 4353.0000 1.0000
49.1200 4334.0000 1.0000
49.1400 4220.0000 1.0000
49.1600 4241.0000 1.0000
49.1800 4154.0000 1.0000
49.2000 4016.0000 1.0000
49.2200 4009.0000 1.0000
49.2400 3888.0000 1.0000
49.2600 3923.0000 1.0000
49.2800 4000.0000 1.0000
49.3000 3784.0000 1.0000
49.3200 3878.0000 1.0000
49.3400 3744.0000 1.0000
49.3600 3622.0000 1.0000
49.3800 3706.0000 1.0000
49.4000 3746.0000 1.0000
49.4200 3585.0000 1.0000
49.4400 3583.0000 1.0000
49.4600 3555.0000 1.0000
49.4800 3533.0000 1.0000
49.5000 3543.0000 1.0000
49.5200 3466.0000 1.0000
49.5400 3528.0000 1.0000
49.5600 3448.0000 1.0000
49.5800 3280.0000 1.0000
49.6000 3396.0000 1.0000
49.6200 3385.0000 1.0000
49.6400 3388.0000 1.0000
49.6600 3399.0000 1.0000
49.6800 3301.0000 1.0000
49.7000 3300.0000 1.0000
49.7200 3364.0000 1.0000
49.7400 3277.0000 1.0000
49.7600 3277.0000 1.0000
49.7800 3280.0000 1.0000
49.8000 3216.0000 1.0000
49.8200 3192.0000 1.0000
49.8400 3125.0000 1.0000
49.8600 3175.0000 1.0000
49.8800 3159.0000 1.0000
49.9000 3203.0000 1.0000
49.9200 3132.0000 1.0000
49.9400 3228.0000 1.0000
49.9600 3167.0000 1.0000
49.9800 3170.0000 1.0000
50.0000 3192.0000 1.0000
50.0200 3087.0000 1.0000
50.0400 3252.0000 1.0000
50.0600 3138.0000 1.0000
50.0800 3081.0000 1.0000
50.1000 3086.0000 1.0000
50.1200 3098.0000 1.0000
50.1400 3107.0000 1.0000
50.1600 3142.0000 1.0000
50.1800 3087.0000 1.0000
50.2000 3139.0000 1.0000
50.2200 3166.0000 1.0000
50.2400 3058.0000 1.0000
50.2600 3230.0000 1.0000
50.2800 3131.0000 1.0000
50.3000 3192.0000 1.0000
50.3200 3143.0000 1.0000
50.3400 3256.0000 1.0000
50.3600 3237.0000 1.0000
50.3800 3162.0000 1.0000
50.4000 3176.0000 1.0000
50.4200 3309.0000 1.0000
50.4400 3245.0000 1.0000
50.4600 3291.0000 1.0000
50.4800 3295.0000 1.0000
50.5000 3304.0000 1.0000
50.5200 3387.0000 1.0000
50.5400 3311.0000 1.0000
50.5600 3377.0000 1.0000
50.5800 3537.0000 1.0000
50.6000 3424.0000 1.0000
50.6200 3488.0000 1.0000
50.6400 3551.0000 1.0000
50.6600 3538.0000 1.0000
50.6800 3557.0000 1.0000
50.7000 3622.0000 1.0000
50.7200 3848.0000 1.0000
50.7400 3780.0000 1.0000
50.7600 3812.0000 1.0000
50.7800 3942.0000 1.0000
50.8000 3860.0000 1.0000
50.8200 3973.0000 1.0000
50.8400 4010.0000 1.0000
50.8600 4131.0000 1.0000
50.8800 4113.0000 1.0000
50.9000 4143.0000 1.0000
50.9200 4208.0000 1.0000
50.9400 4319.0000 1.0000
50.9600 4243.0000 1.0000
50.9800 4393.0000 1.0000
51.0000 4596.0000 1.0000
51.0200 4486.0000 1.0000
51.0400 4509.0000 1.0000
51.0600 4650.0000 1.0000
51.0800 4857.0000 1.0000
51.1000 4820.0000 1.0000
51.1200 4858.0000 1.0000
51.1400 4808.0000 1.0000
51.1600 4882.0000 1.0000
51.1800 4918.0000 1.0000
51.2000 4970.0000 1.0000
51.2200 4967.0000 1.0000
51.2400 4958.0000 1.0000
51.2600 5051.0000 1.0000
51.2800 5144.0000 1.0000
51.3000 5145.0000 1.0000
51.3200 5284.0000 1.0000
51.3400 5102.0000 1.0000
51.3600 5162.0000 1.0000
51.3800 5345.0000 1.0000
51.4000 5448.0000 1.0000
51.4200 5608.0000 1.0000
51.4400 5615.0000 1.0000
51.4600 5689.0000 1.0000
51.4800 5810.0000 1.0000
51.5000 5845.0000 1.0000
51.5200 5885.0000 1.0000
51.5400 6201.0000 1.0000
51.5600 6208.0000 1.0000
51.5800 6333.0000 1.0000
51.6000 6623.0000 1.0000
51.6200 6690.0000 1.0000
51.6400 7010.0000 1.0000
51.6600 7049.0000 1.0000
51.6800 7303.0000 1.0000
51.7000 7585.0000 1.0000
51.7200 7612.0000 1.0000
51.7400 7791.0000 1.0000
51.7600 8008.0000 1.0000
51.7800 8182.0000 1.0000
51.8000 8478.0000 1.0000
51.8200 8640.0000 1.0000
51.8400 8994.0000 1.0000
51.8600 9124.0000 1.0000
51.8800 9366.0000 1.0000
51.9000 9469.0000 1.0000
51.9200 9779.0000 1.0000
51.9400 9819.0000 1.0000
51.9600 9937.0000 1.0000
51.9800 10033.0000 1.0000
52.0000 10245.0000 1.0000
52.0200 10375.0000 1.0000
52.0400 10353.0000 1.0000
52.0600 10323.0000 1.0000
52.0800 10118.0000 1.0000
52.1000 10342.0000 1.0000
52.1200 10377.0000 1.0000
52.1400 10255.0000 1.0000
52.1600 10189.0000 1.0000
52.1800 10039.0000 1.0000
52.2000 9741.0000 1.0000
52.2200 9733.0000 1.0000
52.2400 9721.0000 1.0000
52.2600 9440.0000 1.0000
52.2800 9191.0000 1.0000
52.3000 9062.0000 1.0000
52.3200 9075.0000 1.0000
52.3400 8694.0000 1.0000
52.3600 8675.0000 1.0000
52.3800 8588.0000 1.0000
52.4000 8298.0000 1.0000
52.4200 8216.0000 1.0000
52.4400 8185.0000 1.0000
52.4600 7857.0000 1.0000
52.4800 7741.0000 1.0000
52.5000 7637.0000 1.0000
52.5200 7639.0000 1.0000
52.5400 7640.0000 1.0000
52.5600 7541.0000 1.0000
52.5800 7476.0000 1.0000
52.6000 7311.0000 1.0000
52.6200 7345.0000 1.0000
52.6400 7299.0000 1.0000
52.6600 7152.0000 1.0000
52.6800 7022.0000 1.0000
52.7000 7115.0000 1.0000
52.7200 7168.0000 1.0000
52.7400 7129.0000 1.0000
52.7600 7246.0000 1.0000
52.7800 7044.0000 1.0000
52.8000 7111.0000 1.0000
52.8200 7138.0000 1.0000
52.8400 7184.0000 1.0000
52.8600 7046.0000 1.0000
52.8800 7102.0000 1.0000
52.9000 6970.0000 1.0000
52.9200 7096.0000 1.0000
52.9400 7143.0000 1.0000
52.9600 6962.0000 1.0000
52.9800 7069.0000 1.0000
53.0000 6951.0000 1.0000
53.0200 6885.0000 1.0000
53.0400 6933.0000 1.0000
53.0600 6790.0000 1.0000
53.0800 6719.0000 1.0000
53.1000 6747.0000 1.0000
53.1200 6540.0000 1.0000
53.1400 6526.0000 1.0000
53.1600 6443.0000 1.0000
53.1800 6517.0000 1.0000
53.2000 6305.0000 1.0000
53.2200 6154.0000 1.0000
53.2400 6187.0000 1.0000
53.2600 6218.0000 1.0000
53.2800 5905.0000 1.0000
53.3000 5899.0000 1.0000
53.3200 5810.0000 1.0000
53.3400 5697.0000 1.0000
53.3600 5537.0000 1.0000
53.3800 5389.0000 1.0000
53.4000 5335.0000 1.0000
53.4200 5108.0000 1.0000
53.4400 5109.0000 1.0000
53.4600 5057.0000 1.0000
53.4800 5161.0000 1.0000
53.5000 4946.0000 1.0000
53.5200 4840.0000 1.0000
53.5400 4753.0000 1.0000
53.5600 4737.0000 1.0000
53.5800 4637.0000 1.0000
53.6000 4637.0000 1.0000
53.6200 4616.0000 1.0000
53.6400 4497.0000 1.0000
53.6600 4232.0000 1.0000
53.6800 4288.0000 1.0000
53.7000 4257.0000 1.0000
53.7200 4336.0000 1.0000
53.7400 4226.0000 1.0000
53.7600 4291.0000 1.0000
53.7800 4075.0000 1.0000
53.8000 3989.0000 1.0000
53.8200 3949.0000 1.0000
53.8400 4035.0000 1.0000
53.8600 3961.0000 1.0000
53.8800 3921.0000 1.0000
53.9000 3867.0000 1.0000
53.9200 3975.0000 1.0000
53.9400 3849.0000 1.0000
53.9600 3762.0000 1.0000
53.9800 3648.0000 1.0000
54.0000 3725.0000 1.0000
54.0200 3573.0000 1.0000
54.0400 3606.0000 1.0000
54.0600 3551.0000 1.0000
54.0800 3606.0000 1.0000
54.1000 3522.0000 1.0000
54.1200 3469.0000 1.0000
54.1400 3608.0000 1.0000
54.1600 3504.0000 1.0000
54.1800 3416.0000 1.0000
54.2000 3417.0000 1.0000
54.2200 3432.0000 1.0000
54.2400 3323.0000 1.0000
54.2600 3407.0000 1.0000
54.2800 3345.0000 1.0000
54.3000 3357.0000 1.0000
54.3200 3279.0000 1.0000
54.3400 3301.0000 1.0000
54.3600 3186.0000 1.0000
54.3800 3237.0000 1.0000
54.4000 3269.0000 1.0000
54.4200 3150.0000 1.0000
54.4400 3166.0000 1.0000
54.4600 3143.0000 1.0000
54.4800 3259.0000 1.0000
54.5000 3302.0000 1.0000
54.5200 3158.0000 1.0000
54.5400 3261.0000 1.0000
54.5600 3265.0000 1.0000
54.5800 3236.0000 1.0000
54.6000 3171.0000 1.0000
54.6200 3207.0000 1.0000
54.6400 3214.0000 1.0000
54.6600 3289.0000 1.0000
54.6800 3334.0000 1.0000
54.7000 3304.0000 1.0000
54.7200 3221.0000 1.0000
54.7400 3336.0000 1.0000
54.7600 3428.0000 1.0000
54.7800 3376.0000 1.0000
54.8000 3468.0000 1.0000
54.8200 3439.0000 1.0000
54.8400 3332.0000 1.0000
54.8600 3346.0000 1.0000
54.8800 3230.0000 1.0000
54.9000 3309.0000 1.0000
54.9200 3346.0000 1.0000
54.9400 3241.0000 1.0000
54.9600 3322.0000 1.0000
54.9800 3114.0000 1.0000
55.0000 3158.0000 1.0000
55.0200 3101.0000 1.0000
55.0400 3079.0000 1.0000
55.0600 2983.0000 1.0000
55.0800 3020.0000 1.0000
55.1000 3055.0000 1.0000
55.1200 2821.0000 1.0000
55.1400 2803.0000 1.0000
55.1600 2959.0000 1.0000
55.1800 2898.0000 1.0000
55.2000 2829.0000 1.0000
55.2200 2847.0000 1.0000
55.2400 2753.0000 1.0000
55.2600 2824.0000 1.0000
55.2800 2729.0000 1.0000
55.3000 2754.0000 1.0000
55.3200 2756.0000 1.0000
55.3400 2630.0000 1.0000
55.3600 2741.0000 1.0000
55.3800 2688.0000 1.0000
55.4000 2739.0000 1.0000
55.4200 2638.0000 1.0000
55.4400 2650.0000 1.0000
55.4600 2647.0000 1.0000
55.4800 2703.0000 1.0000
55.5000 2697.0000 1.0000
55.5200 2557.0000 1.0000
55.5400 2685.0000 1.0000
55.5600 2695.0000 1.0000
55.5800 2674.0000 1.0000
55.6000 2675.0000 1.0000
55.6200 2641.0000 1.0000
55.6400 2550.0000 1.0000
55.6600 2565.0000 1.0000
55.6800 2656.0000 1.0000
55.7000 2658.0000 1.0000
55.7200 2557.0000 1.0000
55.7400 2593.0000 1.0000
55.7600 2515.0000 1.0000
55.7800 2671.0000 1.0000
55.8000 2618.0000 1.0000
55.8200 2613.0000 1.0000
55.8400 2572.0000 1.0000
55.8600 2589.0000 1.0000
55.8800 2653.0000 1.0000
55.9000 2650.0000 1.0000
55.9200 2728.0000 1.0000
55.9400 2545.0000 1.0000
55.9600 2511.0000 1.0000
55.9800 2648.0000 1.0000
56.0000 2598.0000 1.0000
56.0200 2601.0000 1.0000
56.0400 2632.0000 1.0000
56.0600 2719.0000 1.0000
56.0800 2624.0000 1.0000
56.1000 2623.0000 1.0000
56.1200 2604.0000 1.0000
56.1400 2634.0000 1.0000
56.1600 2658.0000 1.0000
56.1800 2729.0000 1.0000
56.2000 2706.0000 1.0000
56.2200 2721.0000 1.0000
56.2400 2751.0000 1.0000
56.2600 2689.0000 1.0000
56.2800 2655.0000 1.0000
56.3000 2647.0000 1.0000
56.3200 2628.0000 1.0000
56.3400 2591.0000 1.0000
56.3600 2586.0000 1.0000
56.3800 2601.0000 1.0000
56.4000 2541.0000 1.0000
56.4200 2536.0000 1.0000
56.4400 2471.0000 1.0000
56.4600 2440.0000 1.0000
56.4800 2485.0000 1.0000
56.5000 2374.0000 1.0000
56.5200 2341.0000 1.0000
56.5400 2322.0000 1.0000
56.5600 2380.0000 1.0000
56.5800 2198.0000 1.0000
56.6000 2301.0000 1.0000
56.6200 2222.0000 1.0000
56.6400 2158.0000 1.0000
56.6600 2200.0000 1.0000
56.6800 2178.0000 1.0000
56.7000 2162.0000 1.0000
56.7200 2083.0000 1.0000
56.7400 2122.0000 1.0000
56.7600 2146.0000 1.0000
56.7800 2087.0000 1.0000
56.8000 2000.0000 1.0000
56.8200 2026.0000 1.0000
56.8400 2006.0000 1.0000
56.8600 2028.0000 1.0000
56.8800 2046.0000 1.0000
56.9000 1933.0000 1.0000
56.9200 1901.0000 1.0000
56.9400 1917.0000 1.0000
56.9600 1955.0000 1.0000
56.9800 2006.0000 1.0000
57.0000 1997.0000 1.0000
57.0200 1831.0000 1.0000
57.0400 1959.0000 1.0000
57.0600 1874.0000 1.0000
57.0800 1916.0000 1.0000
57.1000 1884.0000 1.0000
57.1200 1853.0000 1.0000
57.1400 1803.0000 1.0000
57.1600 1835.0000 1.0000
57.1800 1877.0000 1.0000
57.2000 1858.0000 1.0000
57.2200 1863.0000 1.0000
57.2400 1877.0000 1.0000
57.2600 1942.0000 1.0000
57.2800 1846.0000 1.0000
57.3000 1837.0000 1.0000
57.3200 1774.0000 1.0000
57.3400 1788.0000 1.0000
57.3600 1841.0000 1.0000
57.3800 1853.0000 1.0000
57.4000 1853.0000 1.0000
57.4200 1872.0000 1.0000
57.4400 1862.0000 1.0000
57.4600 1850.0000 1.0000
57.4800 1844.0000 1.0000
57.5000 1865.0000 1.0000
57.5200 1814.0000 1.0000
57.5400 1822.0000 1.0000
57.5600 1832.0000 1.0000
57.5800 1877.0000 1.0000
57.6000 1805.0000 1.0000
57.6200 1789.0000 1.0000
57.6400 1868.0000 1.0000
57.6600 1790.0000 1.0000
57.6800 1871.0000 1.0000
57.7000 1814.0000 1.0000
57.7200 1886.0000 1.0000
57.7400 1856.0000 1.0000
57.7600 1913.0000 1.0000
57.7800 1873.0000 1.0000
57.8000 1869.0000 1.0000
57.8200 1891.0000 1.0000
57.8400 1948.0000 1.0000
57.8600 1930.0000 1.0000
57.8800 1955.0000 1.0000
57.9000 1882.0000 1.0000
57.9200 1913.0000 1.0000
57.9400 1947.0000 1.0000
57.9600 1944.0000 1.0000
57.9800 1964.0000 1.0000
58.0000 1979.0000 1.0000
58.0200 2038.0000 1.0000
58.0400 1981.0000 1.0000
58.0600 2034.0000 1.0000
58.0800 2115.0000 1.0000
58.1000 2058.0000 1.0000
58.1200 2018.0000 1.0000
58.1400 2050.0000 1.0000
58.1600 2132.0000 1.0000
58.1800 2199.0000 1.0000
58.2000 2164.0000 1.0000
58.2200 2269.0000 1.0000
58.2400 2086.0000 1.0000
58.2600 2130.0000 1.0000
58.2800 2181.0000 1.0000
58.3000 2203.0000 1.0000
58.3200 2283.0000 1.0000
58.3400 2289.0000 1.0000
58.3600 2239.0000 1.0000
58.3800 2291.0000 1.0000
58.4000 2283.0000 1.0000
58.4200 2321.0000 1.0000
58.4400 2357.0000 1.0000
58.4600 2311.0000 1.0000
58.4800 2248.0000 1.0000
58.5000 2249.0000 1.0000
58.5200 2347.0000 1.0000
58.5400 2253.0000 1.0000
58.5600 2350.0000 1.0000
58.5800 2316.0000 1.0000
58.6000 2293.0000 1.0000
58.6200 2289.0000 1.0000
58.6400 2325.0000 1.0000
58.6600 2297.0000 1.0000
58.6800 2315.0000 1.0000
58.7000 2264.0000 1.0000
58.7200 2236.0000 1.0000
58.7400 2239.0000 1.0000
58.7600 2171.0000 1.0000
58.7800 2126.0000 1.0000
58.8000 2214.0000 1.0000
58.8200 2131.0000 1.0000
58.8400 2137.0000 1.0000
58.8600 2142.0000 1.0000
58.8800 2141.0000 1.0000
58.9000 2065.0000 1.0000
58.9200 2060.0000 1.0000
58.9400 2107.0000 1.0000
58.9600 2070.0000 1.0000
58.9800 2023.0000 1.0000
59.0000 1966.0000 1.0000
59.0200 2009.0000 1.0000
59.0400 2013.0000 1.0000
59.0600 2041.0000 1.0000
59.0800 1982.0000 1.0000
59.1000 1976.0000 1.0000
59.1200 1911.0000 1.0000
59.1400 1899.0000 1.0000
59.1600 1903.0000 1.0000
59.1800 1931.0000 1.0000
59.2000 1866.0000 1.0000
59.2200 1907.0000 1.0000
59.2400 1906.0000 1.0000
59.2600 1848.0000 1.0000
59.2800 1780.0000 1.0000
59.3000 1804.0000 1.0000
59.3200 1843.0000 1.0000
59.3400 1879.0000 1.0000
59.3600 1868.0000 1.0000
59.3800 1755.0000 1.0000
59.4000 1849.0000 1.0000
59.4200 1825.0000 1.0000
59.4400 1792.0000 1.0000
59.4600 1783.0000 1.0000
59.4800 1811.0000 1.0000
59.5000 1697.0000 1.0000
59.5200 1740.0000 1.0000
59.5400 1719.0000 1.0000
59.5600 1722.0000 1.0000
59.5800 1707.0000 1.0000
59.6000 1726.0000 1.0000
59.6200 1675.0000 1.0000
59.6400 1722.0000 1.0000
59.6600 1719.0000 1.0000
59.6800 1735.0000 1.0000
59.7000 1744.0000 1.0000
59.7200 1719.0000 1.0000
59.7400 1737.0000 1.0000
59.7600 1712.0000 1.0000
59.7800 1664.0000 1.0000
59.8000 1684.0000 1.0000
59.8200 1681.0000 1.0000
59.8400 1679.0000 1.0000
59.8600 1732.0000 1.0000
59.8800 1667.0000 1.0000
59.9000 1610.0000 1.0000
59.9200 1626.0000 1.0000
59.9400 1675.0000 1.0000
59.9600 1585.0000 1.0000
59.9800 1661.0000 1.0000
60.0000 1634.0000 1.0000
60.0200 1658.0000 1.0000
60.0400 1640.0000 1.0000
60.0600 1606.0000 1.0000
60.0800 1659.0000 1.0000
60.1000 1661.0000 1.0000
60.1200 1638.0000 1.0000
60.1400 1654.0000 1.0000
60.1600 1613.0000 1.0000
60.1800 1638.0000 1.0000
60.2000 1661.0000 1.0000
60.2200 1569.0000 1.0000
60.2400 1593.0000 1.0000
60.2600 1632.0000 1.0000
60.2800 1598.0000 1.0000
60.3000 1605.0000 1.0000
60.3200 1691.0000 1.0000
60.3400 1588.0000 1.0000
60.3600 1618.0000 1.0000
60.3800 1669.0000 1.0000
60.4000 1599.0000 1.0000
60.4200 1563.0000 1.0000
60.4400 1676.0000 1.0000
60.4600 1594.0000 1.0000
60.4800 1664.0000 1.0000
60.5000 1637.0000 1.0000
60.5200 1558.0000 1.0000
60.5400 1642.0000 1.0000
60.5600 1602.0000 1.0000
60.5800 1634.0000 1.0000
60.6000 1600.0000 1.0000
60.6200 1726.0000 1.0000
60.6400 1696.0000 1.0000
60.6600 1602.0000 1.0000
60.6800 1565.0000 1.0000
60.7000 1622.0000 1.0000
60.7200 1586.0000 1.0000
60.7400 1625.0000 1.0000
60.7600 1616.0000 1.0000
60.7800 1676.0000 1.0000
60.8000 1621.0000 1.0000
60.8200 1639.0000 1.0000
60.8400 1620.0000 1.0000
60.8600 1672.0000 1.0000
60.8800 1593.0000 1.0000
60.9000 1637.0000 1.0000
60.9200 1660.0000 1.0000
60.9400 1654.0000 1.0000
60.9600 1644.0000 1.0000
60.9800 1646.0000 1.0000
61.0000 1707.0000 1.0000
61.0200 1699.0000 1.0000
61.0400 1663.0000 1.0000
61.0600 1732.0000 1.0000
61.0800 1676.0000 1.0000
61.1000 1735.0000 1.0000
61.1200 1705.0000 1.0000
61.1400 1668.0000 1.0000
61.1600 1666.0000 1.0000
61.1800 1699.0000 1.0000
61.2000 1633.0000 1.0000
61.2200 1750.0000 1.0000
61.2400 1674.0000 1.0000
61.2600 1670.0000 1.0000
61.2800 1693.0000 1.0000
61.3000 1662.0000 1.0000
61.3200 1666.0000 1.0000
61.3400 1625.0000 1.0000
61.3600 1598.0000 1.0000
61.3800 1649.0000 1.0000
61.4000 1605.0000 1.0000
61.4200 1624.0000 1.0000
61.4400 1652.0000 1.0000
61.4600 1595.0000 1.0000
61.4800 1603.0000 1.0000
61.5000 1593.0000 1.0000
61.5200 1660.0000 1.0000
61.5400 1614.0000 1.0000
61.5600 1622.0000 1.0000
61.5800 1599.0000 1.0000
61.6000 1620.0000 1.0000
61.6200 1512.0000 1.0000
61.6400 1509.0000 1.0000
61.6600 1596.0000 1.0000
61.6800 1520.0000 1.0000
61.7000 1561.0000 1.0000
61.7200 1587.0000 1.0000
61.7400 1596.0000 1.0000
61.7600 1491.0000 1.0000
61.7800 1510.0000 1.0000
61.8000 1613.0000 1.0000
61.8200 1534.0000 1.0000
61.8400 1498.0000 1.0000
61.8600 1519.0000 1.0000
61.8800 1516.0000 1.0000
61.9000 1502.0000 1.0000
61.9200 1544.0000 1.0000
61.9400 1511.0000 1.0000
61.9600 1480.0000 1.0000
61.9800 1563.0000 1.0000
62.0000 1500.0000 1.0000
62.0200 1574.0000 1.0000
62.0400 1523.0000 1.0000
62.0600 1498.0000 1.0000
62.0800 1503.0000 1.0000
62.1000 1442.0000 1.0000
62.1200 1446.0000 1.0000
62.1400 1518.0000 1.0000
62.1600 1438.0000 1.0000
62.1800 1511.0000 1.0000
62.2000 1366.0000 1.0000
62.2200 1537.0000 1.0000
62.2400 1493.0000 1.0000
62.2600 1419.0000 1.0000
62.2800 1475.0000 1.0000
62.3000 1438.0000 1.0000
62.3200 1416.0000 1.0000
62.3400 1473.0000 1.0000
62.3600 1469.0000 1.0000
62.3800 1383.0000 1.0000
62.4000 1415.0000 1.0000
62.4200 1449.0000 1.0000
62.4400 1461.0000 1.0000
62.4600 1454.0000 1.0000
62.4800 1399.0000 1.0000
62.5000 1342.0000 1.0000
62.5200 1517.0000 1.0000
62.5400 1425.0000 1.0000
62.5600 1460.0000 1.0000
62.5800 1426.0000 1.0000
62.6000 1460.0000 1.0000
62.6200 1492.0000 1.0000
62.6400 1410.0000 1.0000
62.6600 1374.0000 1.0000
62.6800 1406.0000 1.0000
62.7000 1469.0000 1.0000
62.7200 1437.0000 1.0000
62.7400 1434.0000 1.0000
62.7600 1441.0000 1.0000
62.7800 1380.0000 1.0000
62.8000 1386.0000 1.0000
62.8200 1398.0000 1.0000
62.8400 1356.0000 1.0000
62.8600 1423.0000 1.0000
62.8800 1423.0000 1.0000
62.9000 1370.0000 1.0000
62.9200 1418.0000 1.0000
62.9400 1455.0000 1.0000
62.9600 1340.0000 1.0000
62.9800 1360.0000 1.0000
63.0000 1421.0000 1.0000
63.0200 1438.0000 1.0000
63.0400 1433.0000 1.0000
63.0600 1389.0000 1.0000
63.0800 1437.0000 1.0000
63.1000 1435.0000 1.0000
63.1200 1407.0000 1.0000
63.1400 1423.0000 1.0000
63.1600 1390.0000 1.0000
63.1800 1373.0000 1.0000
63.2000 1417.0000 1.0000
63.2200 1423.0000 1.0000
63.2400 1369.0000 1.0000
63.2600 1374.0000 1.0000
63.2800 1393.0000 1.0000
63.3000 1419.0000 1.0000
63.3200 1380.0000 1.0000
63.3400 1417.0000 1.0000
63.3600 1405.0000 1.0000
63.3800 1360.0000 1.0000
63.4000 1390.0000 1.0000
63.4200 1423.0000 1.0000
63.4400 1369.0000 1.0000
63.4600 1384.0000 1.0000
63.4800 1411.0000 1.0000
63.5000 1415.0000 1.0000
63.5200 1464.0000 1.0000
63.5400 1384.0000 1.0000
63.5600 1353.0000 1.0000
63.5800 1385.0000 1.0000
63.6000 1413.0000 1.0000
63.6200 1402.0000 1.0000
63.6400 1448.0000 1.0000
63.6600 1450.0000 1.0000
63.6800 1376.0000 1.0000
63.7000 1452.0000 1.0000
63.7200 1368.0000 1.0000
63.7400 1372.0000 1.0000
63.7600 1398.0000 1.0000
63.7800 1405.0000 1.0000
63.8000 1356.0000 1.0000
63.8200 1371.0000 1.0000
63.8400 1411.0000 1.0000
63.8600 1441.0000 1.0000
63.8800 1339.0000 1.0000
63.9000 1409.0000 1.0000
63.9200 1408.0000 1.0000
63.9400 1435.0000 1.0000
63.9600 1382.0000 1.0000
63.9800 1314.0000 1.0000
64.0000 1351.0000 1.0000
64.0200 1380.0000 1.0000
64.0400 1377.0000 1.0000
64.0600 1385.0000 1.0000
64.0800 1428.0000 1.0000
64.1000 1384.0000 1.0000
64.1200 1398.0000 1.0000
64.1400 1445.0000 1.0000
64.1600 1349.0000 1.0000
64.1800 1333.0000 1.0000
64.2000 1461.0000 1.0000
64.2200 1382.0000 1.0000
64.2400 1482.0000 1.0000
64.2600 1387.0000 1.0000
64.2800 1402.0000 1.0000
64.3000 1446.0000 1.0000
64.3200 1442.0000 1.0000
64.3400 1423.0000 1.0000
64.3600 1417.0000 1.0000
64.3800 1437.0000 1.0000
64.4000 1436.0000 1.0000
64.4200 1422.0000 1.0000
64.4400 1447.0000 1.0000
64.4600 1382.0000 1.0000
64.4800 1446.0000 1.0000
64.5000 1464.0000 1.0000
64.5200 1420.0000 1.0000
64.5400 1497.0000 1.0000
64.5600 1397.0000 1.0000
64.5800 1398.0000 1.0000
64.6000 1457.0000 1.0000
64.6200 1411.0000 1.0000
64.6400 1374.0000 1.0000
64.6600 1429.0000 1.0000
64.6800 1476.0000 1.0000
64.7000 1447.0000 1.0000
64.7200 1397.0000 1.0000
64.7400 1421.0000 1.0000
64.7600 1462.0000 1.0000
64.7800 1485.0000 1.0000
64.8000 1498.0000 1.0000
64.8200 1398.0000 1.0000
64.8400 1390.0000 1.0000
64.8600 1425.0000 1.0000
64.8800 1428.0000 1.0000
64.9000 1455.0000 1.0000
64.9200 1465.0000 1.0000
64.9400 1394.0000 1.0000
64.9600 1449.0000 1.0000
64.9800 1481.0000 1.0000
65.0000 1450.0000 1.0000
65.0200 1390.0000 1.0000
65.0400 1503.0000 1.0000
65.0600 1515.0000 1.0000
65.0800 1487.0000 1.0000
65.1000 1527.0000 1.0000
65.1200 1506.0000 1.0000
65.1400 1431.0000 1.0000
65.1600 1469.0000 1.0000
65.1800 1474.0000 1.0000
65.2000 1437.0000 1.0000
65.2200 1495.0000 1.0000
65.2400 1465.0000 1.0000
65.2600 1525.0000 1.0000
65.2800 1555.0000 1.0000
65.3000 1491.0000 1.0000
65.3200 1415.0000 1.0000
65.3400 1467.0000 1.0000
65.3600 1479.0000 1.0000
65.3800 1492.0000 1.0000
65.4000 1522.0000 1.0000
65.4200 1520.0000 1.0000
65.4400 1530.0000 1.0000
65.4600 1520.0000 1.0000
65.4800 1496.0000 1.0000
65.5000 1483.0000 1.0000
65.5200 1600.0000 1.0000
65.5400 1524.0000 1.0000
65.5600 1500.0000 1.0000
65.5800 1515.0000 1.0000
65.6000 1529.0000 1.0000
65.6200 1611.0000 1.0000
65.6400 1573.0000 1.0000
65.6600 1613.0000 1.0000
65.6800 1594.0000 1.0000
65.7000 1589.0000 1.0000
65.7200 1650.0000 1.0000
65.7400 1638.0000 1.0000
65.7600 1587.0000 1.0000
65.7800 1659.0000 1.0000
65.8000 1640.0000 1.0000
65.8200 1613.0000 1.0000
65.8400 1639.0000 1.0000
65.8600 1732.0000 1.0000
65.8800 1720.0000 1.0000
65.9000 1719.0000 1.0000
65.9200 1690.0000 1.0000
65.9400 1673.0000 1.0000
65.9600 1726.0000 1.0000
65.9800 1686.0000 1.0000
66.0000 1748.0000 1.0000
66.0200 1765.0000 1.0000
66.0400 1805.0000 1.0000
66.0600 1772.0000 1.0000
66.0800 1795.0000 1.0000
66.1000 1831.0000 1.0000
66.1200 1805.0000 1.0000
66.1400 1930.0000 1.0000
66.1600 1852.0000 1.0000
66.1800 1864.0000 1.0000
66.2000 1957.0000 1.0000
66.2200 1876.0000 1.0000
66.2400 1864.0000 1.0000
66.2600 2007.0000 1.0000
66.2800 2061.0000 1.0000
66.3000 2009.0000 1.0000
66.3200 1989.0000 1.0000
66.3400 2141.0000 1.0000
66.3600 2166.0000 1.0000
66.3800 2012.0000 1.0000
66.4000 2188.0000 1.0000
66.4200 2280.0000 1.0000
66.4400 2202.0000 1.0000
66.4600 2285.0000 1.0000
66.4800 2382.0000 1.0000
66.5000 2340.0000 1.0000
66.5200 2411.0000 1.0000
66.5400 2387.0000 1.0000
66.5600 2417.0000 1.0000
66.5800 2484.0000 1.0000
66.6000 2514.0000 1.0000
66.6200 2495.0000 1.0000
66.6400 2550.0000 1.0000
66.6600 2639.0000 1.0000
66.6800 2734.0000 1.0000
66.7000 2810.0000 1.0000
66.7200 2759.0000 1.0000
66.7400 2865.0000 1.0000
66.7600 2861.0000 1.0000
66.7800 2927.0000 1.0000
66.8000 2978.0000 1.0000
66.8200 2890.0000 1.0000
66.8400 3114.0000 1.0000
66.8600 3113.0000 1.0000
66.8800 3034.0000 1.0000
66.9000 3165.0000 1.0000
66.9200 3141.0000 1.0000
66.9400 3190.0000 1.0000
66.9600 3230.0000 1.0000
66.9800 3158.0000 1.0000
67.0000 3231.0000 1.0000
67.0200 3262.0000 1.0000
67.0400 3310.0000 1.0000
67.0600 3253.0000 1.0000
67.0800 3294.0000 1.0000
67.1000 3306.0000 1.0000
67.1200 3331.0000 1.0000
67.1400 3315.0000 1.0000
67.1600 3230.0000 1.0000
67.1800 3274.0000 1.0000
67.2000 3402.0000 1.0000
67.2200 3336.0000 1.0000
67.2400 3348.0000 1.0000
67.2600 3247.0000 1.0000
67.2800 3191.0000 1.0000
67.3000 3260.0000 1.0000
67.3200 3209.0000 1.0000
67.3400 3162.0000 1.0000
67.3600 3178.0000 1.0000
67.3800 3073.0000 1.0000
67.4000 3064.0000 1.0000
67.4200 3093.0000 1.0000
67.4400 3031.0000 1.0000
67.4600 3044.0000 1.0000
67.4800 3008.0000 1.0000
67.5000 2930.0000 1.0000
67.5200 2884.0000 1.0000
67.5400 2842.0000 1.0000
67.5600 2745.0000 1.0000
67.5800 2739.0000 1.0000
67.6000 2735.0000 1.0000
67.6200 2716.0000 1.0000
67.6400 2736.0000 1.0000
67.6600 2664.0000 1.0000
67.6800 2638.0000 1.0000
67.7000 2573.0000 1.0000
67.7200 2548.0000 1.0000
67.7400 2664.0000 1.0000
67.7600 2584.0000 1.0000
67.7800 2573.0000 1.0000
67.8000 2516.0000 1.0000
67.8200 2463.0000 1.0000
67.8400 2500.0000 1.0000
67.8600 2460.0000 1.0000
67.8800 2431.0000 1.0000
67.9000 2380.0000 1.0000
67.9200 2416.0000 1.0000
67.9400 2417.0000 1.0000
67.9600 2421.0000 1.0000
67.9800 2318.0000 1.0000
68.0000 2316.0000 1.0000
68.0200 2348.0000 1.0000
68.0400 2282.0000 1.0000
68.0600 2300.0000 1.0000
68.0800 2287.0000 1.0000
68.1000 2301.0000 1.0000
68.1200 2275.0000 1.0000
68.1400 2252.0000 1.0000
68.1600 2195.0000 1.0000
68.1800 2227.0000 1.0000
68.2000 2262.0000 1.0000
68.2200 2194.0000 1.0000
68.2400 2103.0000 1.0000
68.2600 2159.0000 1.0000
68.2800 2171.0000 1.0000
68.3000 2132.0000 1.0000
68.3200 2204.0000 1.0000
68.3400 2167.0000 1.0000
68.3600 2203.0000 1.0000
68.3800 2103.0000 1.0000
68.4000 1985.0000 1.0000
68.4200 2143.0000 1.0000
68.4400 2035.0000 1.0000
68.4600 2090.0000 1.0000
68.4800 2089.0000 1.0000
68.5000 2068.0000 1.0000
68.5200 1986.0000 1.0000
68.5400 1976.0000 1.0000
68.5600 2056.0000 1.0000
68.5800 2071.0000 1.0000
68.6000 2029.0000 1.0000
68.6200 2024.0000 1.0000
68.6400 2066.0000 1.0000
68.6600 2076.0000 1.0000
68.6800 2080.0000 1.0000
68.7000 2069.0000 1.0000
68.7200 2154.0000 1.0000
68.7400 2060.0000 1.0000
68.7600 2015.0000 1.0000
68.7800 2009.0000 1.0000
68.8000 1989.0000 1.0000
68.8200 2109.0000 1.0000
68.8400 2045.0000 1.0000
68.8600 2146.0000 1.0000
68.8800 2067.0000 1.0000
68.9000 2016.0000 1.0000
68.9200 2084.0000 1.0000
68.9400 2146.0000 1.0000
68.9600 2143.0000 1.0000
68.9800 2093.0000 1.0000
69.0000 2081.0000 1.0000
69.0200 2147.0000 1.0000
69.0400 2163.0000 1.0000
69.0600 2134.0000 1.0000
69.0800 2179.0000 1.0000
69.1000 2118.0000 1.0000
69.1200 2132.0000 1.0000
69.1400 2179.0000 1.0000
69.1600 2176.0000 1.0000
69.1800 2165.0000 1.0000
69.2000 2200.0000 1.0000
69.2200 2258.0000 1.0000
69.2400 2285.0000 1.0000
69.2600 2266.0000 1.0000
69.2800 2292.0000 1.0000
69.3000 2297.0000 1.0000
69.3200 2232.0000 1.0000
69.3400 2308.0000 1.0000
69.3600 2360.0000 1.0000
69.3800 2371.0000 1.0000
69.4000 2362.0000 1.0000
69.4200 2312.0000 1.0000
69.4400 2306.0000 1.0000
69.4600 2417.0000 1.0000
69.4800 2439.0000 1.0000
69.5000 2428.0000 1.0000
69.5200 2423.0000 1.0000
69.5400 2459.0000 1.0000
69.5600 2379.0000 1.0000
69.5800 2418.0000 1.0000
69.6000 2435.0000 1.0000
69.6200 2391.0000 1.0000
69.6400 2468.0000 1.0000
69.6600 2431.0000 1.0000
69.6800 2381.0000 1.0000
69.7000 2451.0000 1.0000
69.7200 2434.0000 1.0000
69.7400 2469.0000 1.0000
69.7600 2441.0000 1.0000
69.7800 2488.0000 1.0000
69.8000 2514.0000 1.0000
69.8200 2441.0000 1.0000
69.8400 2417.0000 1.0000
69.8600 2429.0000 1.0000
69.8800 2336.0000 1.0000
69.9000 2390.0000 1.0000
69.9200 2472.0000 1.0000
69.9400 2323.0000 1.0000
69.9600 2379.0000 1.0000
69.9800 2384.0000 1.0000
70.0000 2322.0000 1.0000
70.0200 2351.0000 1.0000
70.0400 2328.0000 1.0000
70.0600 2363.0000 1.0000
70.0800 2384.0000 1.0000
70.1000 2391.0000 1.0000
70.1200 2357.0000 1.0000
70.1400 2208.0000 1.0000
70.1600 2283.0000 1.0000
70.1800 2372.0000 1.0000
70.2000 2332.0000 1.0000
70.2200 2297.0000 1.0000
70.2400 2310.0000 1.0000
70.2600 2308.0000 1.0000
70.2800 2306.0000 1.0000
70.3000 2308.0000 1.0000
70.3200 2347.0000 1.0000
70.3400 2380.0000 1.0000
70.3600 2394.0000 1.0000
70.3800 2404.0000 1.0000
70.4000 2373.0000 1.0000
70.4200 2367.0000 1.0000
70.4400 2387.0000 1.0000
70.4600 2414.0000 1.0000
70.4800 2471.0000 1.0000
70.5000 2532.0000 1.0000
70.5200 2461.0000 1.0000
70.5400 2437.0000 1.0000
70.5600 2470.0000 1.0000
70.5800 2514.0000 1.0000
70.6000 2474.0000 1.0000
70.6200 2551.0000 1.0000
70.6400 2530.0000 1.0000
70.6600 2612.0000 1.0000
70.6800 2641.0000 1.0000
70.7000 2604.0000 1.0000
70.7200 2748.0000 1.0000
70.7400 2742.0000 1.0000
70.7600 2759.0000 1.0000
70.7800 2685.0000 1.0000
70.8000 2780.0000 1.0000
70.8200 2757.0000 1.0000
70.8400 2798.0000 1.0000
70.8600 2845.0000 1.0000
70.8800 2873.0000 1.0000
70.9000 2889.0000 1.0000
70.9200 2893.0000 1.0000
70.9400 3001.0000 1.0000
70.9600 2968.0000 1.0000
70.9800 2999.0000 1.0000
71.0000 3001.0000 1.0000
71.0200 3149.0000 1.0000
71.0400 3102.0000 1.0000
71.0600 3078.0000 1.0000
71.0800 3030.0000 1.0000
71.1000 3140.0000 1.0000
71.1200 3149.0000 1.0000
71.1400 3003.0000 1.0000
71.1600 3126.0000 1.0000
71.1800 3142.0000 1.0000
71.2000 3122.0000 1.0000
71.2200 3088.0000 1.0000
71.2400 3214.0000 1.0000
71.2600 3186.0000 1.0000
71.2800 3170.0000 1.0000
71.3000 3187.0000 1.0000
71.3200 3076.0000 1.0000
71.3400 3067.0000 1.0000
71.3600 3070.0000 1.0000
71.3800 3122.0000 1.0000
71.4000 3035.0000 1.0000
71.4200 3040.0000 1.0000
71.4400 3049.0000 1.0000
71.4600 3135.0000 1.0000
71.4800 2932.0000 1.0000
71.5000 3008.0000 1.0000
71.5200 2959.0000 1.0000
71.5400 2957.0000 1.0000
71.5600 2839.0000 1.0000
71.5800 3007.0000 1.0000
71.6000 2868.0000 1.0000
71.6200 2778.0000 1.0000
71.6400 2794.0000 1.0000
71.6600 2776.0000 1.0000
71.6800 2841.0000 1.0000
71.7000 2703.0000 1.0000
71.7200 2766.0000 1.0000
71.7400 2749.0000 1.0000
71.7600 2641.0000 1.0000
71.7800 2693.0000 1.0000
71.8000 2621.0000 1.0000
71.8200 2587.0000 1.0000
71.8400 2631.0000 1.0000
71.8600 2611.0000 1.0000
71.8800 2664.0000 1.0000
71.9000 2664.0000 1.0000
71.9200 2588.0000 1.0000
71.9400 2537.0000 1.0000
71.9600 2482.0000 1.0000
71.9800 2551.0000 1.0000
72.0000 2483.0000 1.0000
72.0200 2628.0000 1.0000
72.0400 2592.0000 1.0000
72.0600 2539.0000 1.0000
72.0800 2541.0000 1.0000
72.1000 2510.0000 1.0000
72.1200 2452.0000 1.0000
72.1400 2430.0000 1.0000
72.1600 2541.0000 1.0000
72.1800 2608.0000 1.0000
72.2000 2519.0000 1.0000
72.2200 2553.0000 1.0000
72.2400 2582.0000 1.0000
72.2600 2590.0000 1.0000
72.2800 2521.0000 1.0000
72.3000 2583.0000 1.0000
72.3200 2604.0000 1.0000
72.3400 2630.0000 1.0000
72.3600 2628.0000 1.0000
72.3800 2540.0000 1.0000
72.4000 2607.0000 1.0000
72.4200 2583.0000 1.0000
72.4400 2624.0000 1.0000
72.4600 2612.0000 1.0000
72.4800 2611.0000 1.0000
72.5000 2627.0000 1.0000
72.5200 2623.0000 1.0000
72.5400 2591.0000 1.0000
72.5600 2634.0000 1.0000
72.5800 2625.0000 1.0000
72.6000 2653.0000 1.0000
72.6200 2633.0000 1.0000
72.6400 2573.0000 1.0000
72.6600 2657.0000 1.0000
72.6800 2505.0000 1.0000
72.7000 2609.0000 1.0000
72.7200 2576.0000 1.0000
72.7400 2529.0000 1.0000
72.7600 2679.0000 1.0000
72.7800 2623.0000 1.0000
72.8000 2563.0000 1.0000
72.8200 2674.0000 1.0000
72.8400 2630.0000 1.0000
72.8600 2638.0000 1.0000
72.8800 2516.0000 1.0000
72.9000 2507.0000 1.0000
72.9200 2610.0000 1.0000
72.9400 2523.0000 1.0000
72.9600 2480.0000 1.0000
72.9800 2547.0000 1.0000
73.0000 2497.0000 1.0000
73.0200 2492.0000 1.0000
73.0400 2452.0000 1.0000
73.0600 2408.0000 1.0000
73.0800 2417.0000 1.0000
73.1000 2400.0000 1.0000
73.1200 2394.0000 1.0000
73.1400 2347.0000 1.0000
73.1600 2349.0000 1.0000
73.1800 2327.0000 1.0000
73.2000 2328.0000 1.0000
73.2200 2322.0000 1.0000
73.2400 2302.0000 1.0000
73.2600 2231.0000 1.0000
73.2800 2340.0000 1.0000
73.3000 2250.0000 1.0000
73.3200 2239.0000 1.0000
73.3400 2223.0000 1.0000
73.3600 2213.0000 1.0000
73.3800 2250.0000 1.0000
73.4000 2184.0000 1.0000
73.4200 2189.0000 1.0000
73.4400 2203.0000 1.0000
73.4600 2135.0000 1.0000
73.4800 2129.0000 1.0000
73.5000 2085.0000 1.0000
73.5200 2148.0000 1.0000
73.5400 2124.0000 1.0000
73.5600 2230.0000 1.0000
73.5800 2200.0000 1.0000
73.6000 2079.0000 1.0000
73.6200 2075.0000 1.0000
73.6400 2154.0000 1.0000
73.6600 1993.0000 1.0000
73.6800 2077.0000 1.0000
73.7000 2081.0000 1.0000
73.7200 2037.0000 1.0000
73.7400 2076.0000 1.0000
73.7600 2010.0000 1.0000
73.7800 2043.0000 1.0000
73.8000 2007.0000 1.0000
73.8200 2027.0000 1.0000
73.8400 2016.0000 1.0000
73.8600 2021.0000 1.0000
73.8800 2049.0000 1.0000
73.9000 1938.0000 1.0000
73.9200 2050.0000 1.0000
73.9400 1984.0000 1.0000
73.9600 2044.0000 1.0000
73.9800 2043.0000 1.0000
74.0000 2067.0000 1.0000
74.0200 2010.0000 1.0000
74.0400 2030.0000 1.0000
74.0600 1997.0000 1.0000
74.0800 1976.0000 1.0000
74.1000 1990.0000 1.0000
74.1200 1962.0000 1.0000
74.1400 2020.0000 1.0000
74.1600 1949.0000 1.0000
74.1800 1987.0000 1.0000
74.2000 1974.0000 1.0000
74.2200 2000.0000 1.0000
74.2400 1970.0000 1.0000
74.2600 1991.0000 1.0000
74.2800 1924.0000 1.0000
74.3000 2034.0000 1.0000
74.3200 1949.0000 1.0000
74.3400 2003.0000 1.0000
74.3600 1950.0000 1.0000
74.3800 1967.0000 1.0000
74.4000 1914.0000 1.0000
74.4200 1987.0000 1.0000
74.4400 1957.0000 1.0000
74.4600 1955.0000 1.0000
74.4800 1899.0000 1.0000
74.5000 1939.0000 1.0000
74.5200 1993.0000 1.0000
74.5400 1975.0000 1.0000
74.5600 2020.0000 1.0000
74.5800 2018.0000 1.0000
74.6000 2046.0000 1.0000
74.6200 1991.0000 1.0000
74.6400 1995.0000 1.0000
74.6600 2015.0000 1.0000
74.6800 1959.0000 1.0000
74.7000 2063.0000 1.0000
74.7200 2130.0000 1.0000
74.7400 2066.0000 1.0000
74.7600 2049.0000 1.0000
74.7800 2020.0000 1.0000
74.8000 2063.0000 1.0000
74.8200 2091.0000 1.0000
74.8400 2138.0000 1.0000
74.8600 2078.0000 1.0000
74.8800 2096.0000 1.0000
74.9000 2114.0000 1.0000
74.9200 2100.0000 1.0000
74.9400 2106.0000 1.0000
74.9600 2146.0000 1.0000
74.9800 2156.0000 1.0000
75.0000 2203.0000 1.0000
75.0200 2221.0000 1.0000
75.0400 2195.0000 1.0000
75.0600 2130.0000 1.0000
75.0800 2204.0000 1.0000
75.1000 2237.0000 1.0000
75.1200 2424.0000 1.0000
75.1400 2318.0000 1.0000
75.1600 2360.0000 1.0000
75.1800 2364.0000 1.0000
75.2000 2455.0000 1.0000
75.2200 2480.0000 1.0000
75.2400 2459.0000 1.0000
75.2600 2554.0000 1.0000
75.2800 2559.0000 1.0000
75.3000 2544.0000 1.0000
75.3200 2585.0000 1.0000
75.3400 2548.0000 1.0000
75.3600 2617.0000 1.0000
75.3800 2648.0000 1.0000
75.4000 2659.0000 1.0000
75.4200 2693.0000 1.0000
75.4400 2804.0000 1.0000
75.4600 2805.0000 1.0000
75.4800 2850.0000 1.0000
75.5000 2935.0000 1.0000
75.5200 2894.0000 1.0000
75.5400 2932.0000 1.0000
75.5600 2986.0000 1.0000
75.5800 3009.0000 1.0000
75.6000 3152.0000 1.0000
75.6200 3176.0000 1.0000
75.6400 3099.0000 1.0000
75.6600 3198.0000 1.0000
75.6800 3263.0000 1.0000
75.7000 3211.0000 1.0000
75.7200 3275.0000 1.0000
75.7400 3286.0000 1.0000
75.7600 3260.0000 1.0000
75.7800 3340.0000 1.0000
75.8000 3328.0000 1.0000
75.8200 3336.0000 1.0000
75.8400 3343.0000 1.0000
75.8600 3460.0000 1.0000
75.8800 3379.0000 1.0000
75.9000 3415.0000 1.0000
75.9200 3408.0000 1.0000
75.9400 3396.0000 1.0000
75.9600 3416.0000 1.0000
75.9800 3414.0000 1.0000
76.0000 3345.0000 1.0000
76.0200 3313.0000 1.0000
76.0400 3367.0000 1.0000
76.0600 3378.0000 1.0000
76.0800 3281.0000 1.0000
76.1000 3274.0000 1.0000
76.1200 3344.0000 1.0000
76.1400 3210.0000 1.0000
76.1600 3183.0000 1.0000
76.1800 3126.0000 1.0000
76.2000 3135.0000 1.0000
76.2200 3103.0000 1.0000
76.2400 3166.0000 1.0000
76.2600 3030.0000 1.0000
76.2800 3142.0000 1.0000
76.3000 3074.0000 1.0000
76.3200 2975.0000 1.0000
76.3400 2902.0000 1.0000
76.3600 2906.0000 1.0000
76.3800 2906.0000 1.0000
76.4000 2855.0000 1.0000
76.4200 2833.0000 1.0000
76.4400 2699.0000 1.0000
76.4600 2730.0000 1.0000
76.4800 2767.0000 1.0000
76.5000 2673.0000 1.0000
76.5200 2764.0000 1.0000
76.5400 2606.0000 1.0000
76.5600 2607.0000 1.0000
76.5800 2677.0000 1.0000
76.6000 2631.0000 1.0000
76.6200 2563.0000 1.0000
76.6400 2506.0000 1.0000
76.6600 2525.0000 1.0000
76.6800 2555.0000 1.0000
76.7000 2457.0000 1.0000
76.7200 2490.0000 1.0000
76.7400 2557.0000 1.0000
76.7600 2401.0000 1.0000
76.7800 2508.0000 1.0000
76.8000 2344.0000 1.0000
76.8200 2344.0000 1.0000
76.8400 2382.0000 1.0000
76.8600 2351.0000 1.0000
76.8800 2325.0000 1.0000
76.9000 2391.0000 1.0000
76.9200 2294.0000 1.0000
76.9400 2281.0000 1.0000
76.9600 2244.0000 1.0000
76.9800 2284.0000 1.0000
77.0000 2318.0000 1.0000
77.0200 2293.0000 1.0000
77.0400 2204.0000 1.0000
77.0600 2226.0000 1.0000
77.0800 2266.0000 1.0000
77.1000 2109.0000 1.0000
77.1200 2177.0000 1.0000
77.1400 2209.0000 1.0000
77.1600 2114.0000 1.0000
77.1800 2126.0000 1.0000
77.2000 2149.0000 1.0000
77.2200 2092.0000 1.0000
77.2400 2096.0000 1.0000
77.2600 2124.0000 1.0000
77.2800 2086.0000 1.0000
77.3000 2020.0000 1.0000
77.3200 2092.0000 1.0000
77.3400 2059.0000 1.0000
77.3600 2010.0000 1.0000
77.3800 1969.0000 1.0000
77.4000 2040.0000 1.0000
77.4200 2052.0000 1.0000
77.4400 2011.0000 1.0000
77.4600 1953.0000 1.0000
77.4800 1945.0000 1.0000
77.5000 1932.0000 1.0000
77.5200 2010.0000 1.0000
77.5400 1913.0000 1.0000
77.5600 1890.0000 1.0000
77.5800 1923.0000 1.0000
77.6000 2014.0000 1.0000
77.6200 1903.0000 1.0000
77.6400 1976.0000 1.0000
77.6600 1924.0000 1.0000
77.6800 1928.0000 1.0000
77.7000 1867.0000 1.0000
77.7200 1899.0000 1.0000
77.7400 1942.0000 1.0000
77.7600 1916.0000 1.0000
77.7800 1947.0000 1.0000
77.8000 1821.0000 1.0000
77.8200 1830.0000 1.0000
77.8400 1812.0000 1.0000
77.8600 1823.0000 1.0000
77.8800 1863.0000 1.0000
77.9000 1864.0000 1.0000
77.9200 1816.0000 1.0000
77.9400 1823.0000 1.0000
77.9600 1860.0000 1.0000
77.9800 1783.0000 1.0000
78.0000 1718.0000 1.0000
78.0200 1804.0000 1.0000
78.0400 1854.0000 1.0000
78.0600 1885.0000 1.0000
78.0800 1907.0000 1.0000
78.1000 1834.0000 1.0000
78.1200 1815.0000 1.0000
78.1400 1763.0000 1.0000
78.1600 1807.0000 1.0000
78.1800 1817.0000 1.0000
78.2000 1806.0000 1.0000
78.2200 1791.0000 1.0000
78.2400 1837.0000 1.0000
78.2600 1825.0000 1.0000
78.2800 1730.0000 1.0000
78.3000 1777.0000 1.0000
78.3200 1832.0000 1.0000
78.3400 1815.0000 1.0000
78.3600 1817.0000 1.0000
78.3800 1835.0000 1.0000
78.4000 1732.0000 1.0000
78.4200 1751.0000 1.0000
78.4400 1764.0000 1.0000
78.4600 1737.0000 1.0000
78.4800 1758.0000 1.0000
78.5000 1762.0000 1.0000
78.5200 1828.0000 1.0000
78.5400 1827.0000 1.0000
78.5600 1777.0000 1.0000
78.5800 1761.0000 1.0000
78.6000 1843.0000 1.0000
78.6200 1705.0000 1.0000
78.6400 1744.0000 1.0000
78.6600 1724.0000 1.0000
78.6800 1793.0000 1.0000
78.7000 1800.0000 1.0000
78.7200 1696.0000 1.0000
78.7400 1684.0000 1.0000
78.7600 1678.0000 1.0000
78.7800 1683.0000 1.0000
78.8000 1789.0000 1.0000
78.8200 1747.0000 1.0000
78.8400 1688.0000 1.0000
78.8600 1753.0000 1.0000
78.8800 1718.0000 1.0000
78.9000 1761.0000 1.0000
78.9200 1767.0000 1.0000
78.9400 1688.0000 1.0000
78.9600 1683.0000 1.0000
78.9800 1750.0000 1.0000
79.0000 1723.0000 1.0000
79.0200 1755.0000 1.0000
79.0400 1708.0000 1.0000
79.0600 1681.0000 1.0000
79.0800 1637.0000 1.0000
79.1000 1634.0000 1.0000
79.1200 1706.0000 1.0000
79.1400 1619.0000 1.0000
79.1600 1615.0000 1.0000
79.1800 1677.0000 1.0000
79.2000 1683.0000 1.0000
79.2200 1747.0000 1.0000
79.2400 1677.0000 1.0000
79.2600 1639.0000 1.0000
79.2800 1680.0000 1.0000
79.3000 1693.0000 1.0000
79.3200 1702.0000 1.0000
79.3400 1740.0000 1.0000
79.3600 1702.0000 1.0000
79.3800 1768.0000 1.0000
79.4000 1714.0000 1.0000
79.4200 1674.0000 1.0000
79.4400 1728.0000 1.0000
79.4600 1708.0000 1.0000
79.4800 1738.0000 1.0000
79.5000 1769.0000 1.0000
79.5200 1692.0000 1.0000
79.5400 1690.0000 1.0000
79.5600 1739.0000 1.0000
79.5800 1758.0000 1.0000
79.6000 1743.0000 1.0000
79.6200 1738.0000 1.0000
79.6400 1740.0000 1.0000
79.6600 1794.0000 1.0000
79.6800 1805.0000 1.0000
79.7000 1713.0000 1.0000
79.7200 1779.0000 1.0000
79.7400 1759.0000 1.0000
79.7600 1777.0000 1.0000
79.7800 1766.0000 1.0000
79.8000 1808.0000 1.0000
79.8200 1810.0000 1.0000
79.8400 1782.0000 1.0000
79.8600 1793.0000 1.0000
79.8800 1819.0000 1.0000
79.9000 1853.0000 1.0000
79.9200 1898.0000 1.0000
79.9400 1946.0000 1.0000
79.9600 1869.0000 1.0000
79.9800 1894.0000 1.0000
80.0000 1888.0000 1.0000
*RAS_INT_END
*RAS_DATA_END
