*TYPE		=  Raw
*CLASS		=  ASCII CLASS
*SAMPLE		=  Ni-ZnCdS
*COMMENT	=   
*FNAME		=  Fe-ZnCdS_Theta_2-Theta.asc
*DATE		=  01-Jun-26 15:53

*GROUP_COUNT	=  1
*GONIO		=  SmartLab, 0.000000
*ATTACHMENT	=  Standard Z stage
*ASC		=  0, 0, 0.000000, 0.000000
*I_MONOCHRO	=  Soller_slit_5.0deg, 0.000000
*FILTER		=  Cu_K-beta
*C_MONOCHRO	=  None, 0.000000
*SLIT_NAME	=  0, Incident slit
*SLIT_NAME	=  1, Receiving slit # 1
*SLIT_NAME	=  2, Receiving slit # 2
*COUNTER	=  D/teX Ultra, 0
*POS_FORMAT	=  0
*SCAN_AXIS	=  2theta/theta
*MEAS_MODE	=  Continuous Scanning
*TARGET		=  29
*XRAY_CHAR	=  K-ALPHA
*WAVE_LENGTH1	=  1.54059
*WAVE_LENGTH2	=  1.54441
*THICKNESS	=  0, 0.000000
*MU		=  0, 0.000000
*SCAN_MODE	=  2theta/theta
*SPEED_DIM	=  sec./step
*XUNIT		=  deg.
*YUNIT		=  counts
*SCALE_MODE	=  1
*REP_COUNT	=  0
*SE_COUNT	=  0
*STD_MATERIAL	=  Unknown, Unknown, 0.000000, 0.000000, 0.000000, 0.000000, 0.000000, 0.000000
*LATT_CONS	=  0, Unknown, Unknown, 0.000000, 0.000000, 0.000000, 0.000000, 0.000000, 0.000000
*SEC_COUNT	=  1
*TSPEC_SIZE	=  0
*EXTRA_SIZE	=  0
*MEMO		=   

*BEGIN
*GROUP		=  0
*START		=  10
*STOP		=  80
*STEP		=  0.02
*OFFSET		=  0.000000
*SPEED		=  0.12
*SLIT_SPEC	=  0, 2/3deg, 2, 0.000000
*SLIT_SPEC	=  1, 20.000mm, 20, 0.000000
*SLIT_SPEC	=  2, 20.000mm, 20, 0.000000
*KV		=  40
*MA		=  150
*LOW		=  0.000000
*HIGH		=  0.000000
*CTEMPER	=  0, 0.000000
*CTEMPER	=  1, 0.000000
*CTEMPER	=  2, 0.000000
*PAREX		=  0, 0.000000
*PAREX		=  1, 0.000000
*PAREX		=  2, 0.000000
*PAREX		=  3, 0.000000
*PAREX		=  4, 0.000000
*PAREX		=  5, 0.000000
*PAREX		=  6, 0.000000
*PAREX		=  7, 0.000000
*PAREX		=  8, 0.000000
*PAREX		=  9, 0.000000
*PAREX		=  10, 0.000000
*PAREX		=  11, 0.000000
*PAREX		=  12, 0.000000
*PAREX		=  13, 0.000000
*PAREX		=  14, 0.000000
*PAREX		=  15, 0.000000
*FULL_SCALE	=  374200
*INDEX		=  0, 0, 0
*COUNT		=  3501
6602, 6259, 6387, 6481
6312, 6373, 6531, 6406
6318, 6597, 6491, 6445
6392, 6320, 6420, 6285
6524, 6336, 6215, 6172
6296, 6365, 6286, 6208
6175, 6199, 6204, 6257
6275, 6183, 6312, 6149
6193, 6268, 6056, 6064
6115, 6130, 6041, 6150
6101, 6050, 6038, 6115
6111, 6081, 6049, 5894
5984, 5984, 5833, 5974
5890, 5938, 5972, 5961
6007, 5920, 5887, 5882
5916, 5804, 5749, 6009
5859, 5953, 5880, 5748
5860, 5798, 5762, 5724
5805, 5738, 5627, 5759
5713, 5807, 5718, 5664
5581, 5666, 5600, 5633
5622, 5658, 5626, 5680
5548, 5651, 5417, 5584
5569, 5506, 5700, 5524
5415, 5528, 5460, 5433
5397, 5500, 5381, 5470
5523, 5375, 5313, 5338
5366, 5344, 5503, 5359
5319, 5238, 5361, 5226
5142, 5207, 5238, 5134
5200, 5181, 5251, 5047
5115, 5186, 5116, 5154
5126, 4994, 5068, 5140
5064, 5123, 5102, 5039
5170, 5116, 5002, 4970
5047, 5051, 5055, 5091
5138, 4990, 4900, 4982
4975, 4925, 4917, 4866
4907, 4872, 4850, 4864
4966, 4905, 4897, 4901
4839, 4802, 4785, 4812
4909, 4687, 4792, 4839
4826, 4709, 4852, 4800
4714, 4729, 4695, 4775
4788, 4626, 4648, 4610
4730, 4669, 4612, 4593
4718, 4560, 4615, 4531
4647, 4615, 4615, 4502
4571, 4582, 4520, 4526
4527, 4610, 4411, 4371
4409, 4471, 4509, 4478
4348, 4323, 4486, 4435
4434, 4335, 4398, 4304
4403, 4374, 4453, 4392
4374, 4371, 4285, 4376
4420, 4328, 4189, 4364
4229, 4248, 4304, 4261
4223, 4212, 4230, 4136
4197, 4191, 4161, 4183
4119, 4240, 4120, 4211
4164, 4117, 4142, 4139
4148, 4112, 4043, 3985
4061, 4082, 4060, 4121
4135, 3904, 3975, 4018
4044, 4025, 4083, 4007
3859, 4041, 3943, 3868
3919, 3967, 3992, 3811
3880, 3811, 3859, 3846
3968, 3904, 3773, 3875
3854, 3842, 3751, 3715
3716, 3712, 3814, 3748
3841, 3795, 3716, 3890
3851, 3681, 3721, 3751
3731, 3804, 3762, 3717
3606, 3647, 3697, 3678
3491, 3599, 3655, 3676
3655, 3707, 3648, 3629
3613, 3539, 3562, 3555
3645, 3592, 3596, 3533
3597, 3508, 3569, 3556
3487, 3541, 3625, 3527
3477, 3541, 3472, 3497
3410, 3470, 3418, 3443
3390, 3435, 3448, 3435
3467, 3383, 3335, 3406
3460, 3431, 3412, 3299
3274, 3363, 3371, 3346
3374, 3262, 3461, 3299
3334, 3344, 3351, 3324
3312, 3239, 3261, 3405
3311, 3324, 3284, 3211
3224, 3332, 3261, 3300
3271, 3209, 3252, 3228
3205, 3216, 3186, 3161
3264, 3231, 3189, 3183
3248, 3147, 3199, 3163
3181, 3225, 3249, 3172
3202, 3221, 3254, 3193
3149, 3185, 3219, 3178
3189, 3169, 3172, 3216
3199, 3128, 3135, 3059
3060, 3143, 3137, 3123
3152, 3113, 3114, 3136
3009, 3151, 3057, 3125
3117, 3019, 3071, 3052
3047, 3048, 2989, 3041
3057, 3022, 3019, 3030
3027, 3002, 3005, 3090
3074, 3068, 3045, 3063
3076, 3000, 3030, 2967
2970, 3003, 2993, 3018
3036, 2991, 3041, 3015
3044, 2974, 2997, 2983
2958, 3024, 2917, 2882
2906, 2967, 2916, 2863
2948, 2945, 2881, 2930
2868, 2989, 2940, 2943
2892, 2824, 2940, 2880
2797, 2974, 2859, 2865
2970, 2873, 2888, 2942
2965, 2900, 2943, 2824
2832, 2899, 2951, 2851
2808, 2846, 2788, 2938
2833, 2840, 2862, 2798
2927, 2861, 2862, 2959
2889, 2906, 2906, 2903
2887, 2869, 2907, 2920
2814, 2908, 2898, 2798
2867, 2864, 2798, 2908
2851, 2895, 2832, 2852
2858, 2874, 2852, 2824
2883, 2805, 2771, 2804
2788, 2735, 2892, 2798
2707, 2745, 2732, 2766
2744, 2860, 2890, 2896
2887, 2836, 2845, 2759
2720, 2727, 2799, 2723
2831, 2838, 2736, 2881
2771, 2738, 2761, 2886
2854, 2771, 2774, 2723
2823, 2763, 2833, 2842
2780, 2808, 2812, 2701
2786, 2789, 2886, 2783
2717, 2771, 2827, 2836
2889, 2828, 2696, 2806
2739, 2827, 2802, 2854
2689, 2840, 2819, 2759
2761, 2779, 2825, 2738
2775, 2831, 2774, 2875
2847, 2841, 2766, 2705
2801, 2770, 2739, 2768
2855, 2804, 2830, 2804
2868, 2852, 2797, 2827
2818, 2916, 2882, 2966
3022, 2932, 2925, 2918
2949, 2866, 2857, 2871
2930, 3017, 2863, 2866
2920, 2979, 2957, 2961
2961, 2893, 2954, 2770
2890, 2974, 2909, 2889
2905, 2906, 2807, 2732
2913, 2809, 2892, 2845
2903, 2998, 2892, 2857
3010, 2836, 2919, 2850
2920, 2972, 2834, 2918
2965, 2941, 2967, 2994
2981, 2813, 2936, 3009
3070, 3010, 3032, 2950
2990, 3003, 2990, 3083
3078, 3148, 3030, 3009
3199, 3151, 3127, 3118
3205, 3173, 3243, 3190
3293, 3388, 3200, 3373
3448, 3468, 3426, 3552
3635, 3696, 3627, 3700
3907, 3794, 3808, 3762
3927, 4043, 4052, 4121
4213, 4241, 4405, 4488
4474, 4702, 4881, 4857
5093, 5185, 5513, 5696
5802, 6037, 6413, 6814
7248, 7559, 8050, 8577
9106, 9738, 10482, 11110
12004, 12755, 13791, 14972
15896, 16912, 17700, 18749
19781, 20611, 21323, 21718
22154, 22480, 22625, 22539
22267, 21974, 21331, 21020
19705, 19084, 18634, 17752
17110, 16261, 15742, 15066
14588, 14203, 13704, 13116
12754, 12476, 11836, 11506
11124, 10787, 10626, 10357
10068, 9909, 9533, 9303
9137, 9060, 8814, 8549
8295, 8243, 8262, 7951
7905, 7821, 7710, 7674
7525, 7407, 7461, 7439
7483, 7411, 7273, 7372
7354, 7210, 7217, 7137
7183, 7262, 7481, 7441
7379, 7434, 7595, 7651
7742, 7889, 8213, 8365
8558, 8881, 9517, 9931
10659, 11517, 12025, 13221
14411, 16115, 17763, 19874
21931, 24304, 26869, 29045
30852, 32083, 32589, 32423
31211, 29671, 27384, 25591
23656, 21860, 20265, 18668
17453, 16554, 15628, 14829
14251, 13582, 13087, 12828
12287, 11815, 11513, 11296
11134, 10834, 10846, 10575
10383, 10285, 10022, 10096
9868, 9784, 9663, 9633
9682, 9750, 9811, 9838
9677, 9460, 9606, 9810
9654, 9713, 9935, 9890
10141, 9965, 10130, 10275
10378, 10515, 10713, 10849
10837, 11142, 11524, 11848
12323, 12585, 13208, 13505
14358, 14919, 15208, 15996
16736, 17994, 18794, 20087
21124, 22488, 24119, 25570
26801, 28236, 30237, 31293
32480, 34354, 35405, 35652
36583, 37420, 36987, 36712
36460, 35695, 34561, 34230
32949, 31387, 30249, 28948
27598, 26387, 25219, 23862
22738, 21438, 20701, 19765
18660, 17814, 17000, 15878
15533, 14736, 14274, 13647
13138, 12641, 12064, 11829
11439, 10873, 10789, 10116
9915, 9562, 9236, 9056
8786, 8572, 8497, 8234
7929, 7663, 7545, 7439
7201, 7196, 6985, 6805
6678, 6486, 6447, 6378
6189, 6078, 6121, 5826
5822, 5824, 5575, 5494
5424, 5393, 5224, 5225
5147, 5048, 5062, 4943
4905, 4843, 4832, 4790
4638, 4665, 4566, 4603
4422, 4437, 4319, 4357
4253, 4216, 4145, 4182
4103, 4074, 4056, 4092
3944, 3988, 3939, 3927
3843, 3882, 3827, 3862
3766, 3790, 3815, 3702
3793, 3691, 3602, 3563
3572, 3433, 3452, 3461
3529, 3411, 3477, 3407
3359, 3388, 3374, 3284
3275, 3283, 3259, 3079
3199, 3069, 3134, 3147
3115, 3138, 3046, 3053
3079, 2942, 2883, 3049
2945, 2963, 2890, 2954
2937, 2868, 2979, 2992
2958, 2862, 2811, 2863
2756, 2852, 2821, 2844
2707, 2776, 2790, 2802
2729, 2786, 2770, 2807
2770, 2698, 2681, 2726
2708, 2787, 2725, 2587
2574, 2636, 2648, 2681
2590, 2565, 2625, 2652
2571, 2659, 2629, 2528
2590, 2579, 2587, 2569
2606, 2599, 2580, 2539
2569, 2558, 2480, 2517
2491, 2504, 2482, 2524
2510, 2496, 2493, 2542
2493, 2519, 2455, 2430
2434, 2466, 2442, 2425
2461, 2350, 2389, 2408
2502, 2406, 2497, 2477
2470, 2519, 2431, 2387
2457, 2453, 2441, 2419
2416, 2403, 2420, 2470
2431, 2407, 2436, 2399
2437, 2370, 2387, 2425
2469, 2450, 2357, 2468
2375, 2451, 2357, 2320
2390, 2390, 2404, 2415
2429, 2361, 2395, 2256
2321, 2248, 2343, 2295
2381, 2331, 2284, 2375
2245, 2217, 2237, 2351
2319, 2325, 2305, 2276
2289, 2233, 2288, 2315
2272, 2281, 2249, 2245
2216, 2257, 2293, 2188
2226, 2231, 2267, 2260
2183, 2248, 2203, 2324
2224, 2328, 2240, 2223
2280, 2265, 2241, 2250
2282, 2155, 2207, 2249
2264, 2254, 2274, 2191
2245, 2262, 2296, 2230
2222, 2222, 2275, 2161
2248, 2278, 2235, 2219
2134, 2256, 2230, 2234
2276, 2340, 2300, 2266
2266, 2237, 2183, 2196
2210, 2227, 2269, 2222
2315, 2213, 2321, 2209
2196, 2228, 2315, 2257
2278, 2304, 2341, 2328
2296, 2280, 2417, 2415
2283, 2388, 2439, 2433
2452, 2425, 2364, 2380
2420, 2419, 2410, 2515
2366, 2464, 2523, 2498
2544, 2522, 2551, 2522
2543, 2583, 2586, 2754
2714, 2717, 2681, 2651
2706, 2781, 2838, 2774
2781, 2880, 2830, 2857
2984, 3017, 2990, 2996
3125, 3129, 3195, 3168
3217, 3316, 3358, 3428
3533, 3579, 3578, 3734
3743, 3879, 3948, 4075
4120, 4206, 4283, 4437
4512, 4708, 4848, 5042
5163, 5360, 5426, 5574
5596, 5925, 5924, 6084
6282, 6347, 6532, 6700
6554, 6733, 6787, 6762
6771, 6731, 6708, 6647
6613, 6442, 6277, 6142
5972, 5966, 5765, 5706
5512, 5442, 5412, 5220
5097, 5056, 4989, 4757
4860, 4571, 4530, 4351
4296, 4200, 4254, 4022
4008, 3961, 3898, 3792
3844, 3781, 3724, 3617
3465, 3481, 3436, 3376
3352, 3289, 3311, 3219
3175, 3144, 3055, 3071
3023, 2987, 2990, 2920
2844, 2984, 2903, 2828
2898, 2852, 2682, 2705
2719, 2733, 2688, 2661
2612, 2676, 2634, 2692
2586, 2542, 2589, 2542
2495, 2451, 2555, 2456
2458, 2425, 2381, 2431
2424, 2504, 2358, 2380
2356, 2355, 2344, 2371
2427, 2357, 2360, 2335
2310, 2339, 2334, 2272
2183, 2265, 2258, 2303
2261, 2265, 2234, 2399
2314, 2277, 2396, 2378
2264, 2254, 2303, 2218
2191, 2243, 2280, 2189
2243, 2197, 2225, 2265
2286, 2246, 2281, 2171
2299, 2256, 2317, 2238
2241, 2300, 2180, 2194
2218, 2183, 2268, 2224
2238, 2265, 2193, 2128
2228, 2188, 2203, 2171
2228, 2179, 2176, 2134
2096, 2220, 2196, 2069
2163, 2178, 2132, 2164
2155, 2150, 2149, 2111
2103, 2051, 2066, 2157
2129, 2040, 2015, 2036
2098, 2105, 2095, 2042
2044, 2020, 2030, 2105
2140, 2086, 2168, 2069
2091, 2065, 2017, 2114
2086, 2088, 2029, 2121
2106, 2054, 2083, 1993
2019, 2072, 2064, 2023
2013, 2011, 2124, 2078
2044, 2094, 2046, 2009
2070, 2087, 2041, 2133
2036, 2092, 2056, 2086
2040, 2002, 2163, 2083
2107, 2093, 2094, 2070
2076, 2063, 2163, 2093
2066, 2058, 2130, 2082
2111, 2062, 2108, 2064
2109, 2118, 2105, 2131
2125, 2121, 2085, 2161
2153, 2046, 2087, 2110
2090, 2134, 2167, 2142
2160, 2149, 2108, 2096
2124, 2176, 2159, 2233
2172, 2061, 2225, 2256
2241, 2140, 2258, 2234
2178, 2233, 2210, 2233
2279, 2270, 2275, 2333
2242, 2353, 2309, 2304
2333, 2323, 2299, 2365
2463, 2396, 2419, 2423
2503, 2553, 2580, 2483
2505, 2525, 2557, 2612
2629, 2595, 2617, 2761
2731, 2662, 2787, 2800
2817, 2776, 2854, 2932
2947, 3037, 3050, 3113
3234, 3254, 3314, 3309
3418, 3417, 3454, 3738
3790, 3783, 3970, 3962
4194, 4176, 4460, 4545
4752, 4870, 5117, 5375
5625, 5827, 6022, 6389
6651, 7050, 7291, 7681
7864, 8349, 8867, 9419
9773, 10126, 10679, 11125
11487, 11873, 12147, 12461
13077, 13449, 13641, 13911
14080, 13910, 14332, 13852
13971, 13731, 13539, 13441
12957, 12617, 12360, 12030
11715, 11352, 10998, 10733
10431, 10142, 9809, 9534
9045, 8916, 8762, 8396
8029, 8004, 7874, 7649
7488, 7233, 7047, 6991
6896, 6623, 6484, 6491
6314, 6078, 6237, 6014
5873, 5741, 5772, 5702
5530, 5378, 5283, 5338
5228, 5177, 5019, 4921
4806, 4813, 4874, 4815
4720, 4688, 4595, 4488
4524, 4451, 4450, 4525
4393, 4367, 4324, 4299
4230, 4281, 4225, 4068
4101, 4125, 4018, 3956
4062, 4109, 3905, 4168
4000, 3882, 3966, 3982
3947, 3927, 3813, 3907
3906, 3879, 3802, 3783
3864, 3775, 3711, 3697
3665, 3723, 3690, 3640
3644, 3704, 3638, 3691
3708, 3649, 3669, 3681
3628, 3701, 3609, 3621
3615, 3754, 3639, 3591
3642, 3626, 3644, 3726
3614, 3665, 3665, 3648
3588, 3678, 3724, 3640
3755, 3639, 3838, 3595
3770, 3855, 3792, 3740
3810, 3931, 3832, 3872
3812, 3907, 3878, 3971
3972, 4060, 3993, 4082
4032, 4177, 4212, 4111
4183, 4218, 4372, 4323
4186, 4398, 4487, 4583
4541, 4600, 4687, 4842
4888, 4876, 4953, 5037
5198, 5224, 5308, 5524
5578, 5664, 5859, 6011
6042, 6146, 6391, 6414
6547, 6796, 6964, 6986
7152, 7306, 7430, 7649
7606, 7858, 7932, 8279
8167, 8431, 8812, 8913
9087, 9777, 9744, 10175
10645, 10522, 11077, 11312
11250, 11793, 11988, 12106
12348, 12233, 12252, 12192
12099, 12428, 12222, 11992
11744, 11463, 11376, 11092
10591, 10566, 9976, 10029
9691, 9382, 9247, 8856
8715, 8343, 8046, 7914
7661, 7533, 7303, 7245
6960, 6760, 6609, 6628
6342, 6234, 6089, 6009
5876, 5785, 5666, 5500
5490, 5350, 5217, 5179
4971, 4913, 4929, 4881
4773, 4821, 4596, 4640
4517, 4449, 4269, 4353
4334, 4220, 4241, 4154
4016, 4009, 3888, 3923
4000, 3784, 3878, 3744
3622, 3706, 3746, 3585
3583, 3555, 3533, 3543
3466, 3528, 3448, 3280
3396, 3385, 3388, 3399
3301, 3300, 3364, 3277
3277, 3280, 3216, 3192
3125, 3175, 3159, 3203
3132, 3228, 3167, 3170
3192, 3087, 3252, 3138
3081, 3086, 3098, 3107
3142, 3087, 3139, 3166
3058, 3230, 3131, 3192
3143, 3256, 3237, 3162
3176, 3309, 3245, 3291
3295, 3304, 3387, 3311
3377, 3537, 3424, 3488
3551, 3538, 3557, 3622
3848, 3780, 3812, 3942
3860, 3973, 4010, 4131
4113, 4143, 4208, 4319
4243, 4393, 4596, 4486
4509, 4650, 4857, 4820
4858, 4808, 4882, 4918
4970, 4967, 4958, 5051
5144, 5145, 5284, 5102
5162, 5345, 5448, 5608
5615, 5689, 5810, 5845
5885, 6201, 6208, 6333
6623, 6690, 7010, 7049
7303, 7585, 7612, 7791
8008, 8182, 8478, 8640
8994, 9124, 9366, 9469
9779, 9819, 9937, 10033
10245, 10375, 10353, 10323
10118, 10342, 10377, 10255
10189, 10039, 9741, 9733
9721, 9440, 9191, 9062
9075, 8694, 8675, 8588
8298, 8216, 8185, 7857
7741, 7637, 7639, 7640
7541, 7476, 7311, 7345
7299, 7152, 7022, 7115
7168, 7129, 7246, 7044
7111, 7138, 7184, 7046
7102, 6970, 7096, 7143
6962, 7069, 6951, 6885
6933, 6790, 6719, 6747
6540, 6526, 6443, 6517
6305, 6154, 6187, 6218
5905, 5899, 5810, 5697
5537, 5389, 5335, 5108
5109, 5057, 5161, 4946
4840, 4753, 4737, 4637
4637, 4616, 4497, 4232
4288, 4257, 4336, 4226
4291, 4075, 3989, 3949
4035, 3961, 3921, 3867
3975, 3849, 3762, 3648
3725, 3573, 3606, 3551
3606, 3522, 3469, 3608
3504, 3416, 3417, 3432
3323, 3407, 3345, 3357
3279, 3301, 3186, 3237
3269, 3150, 3166, 3143
3259, 3302, 3158, 3261
3265, 3236, 3171, 3207
3214, 3289, 3334, 3304
3221, 3336, 3428, 3376
3468, 3439, 3332, 3346
3230, 3309, 3346, 3241
3322, 3114, 3158, 3101
3079, 2983, 3020, 3055
2821, 2803, 2959, 2898
2829, 2847, 2753, 2824
2729, 2754, 2756, 2630
2741, 2688, 2739, 2638
2650, 2647, 2703, 2697
2557, 2685, 2695, 2674
2675, 2641, 2550, 2565
2656, 2658, 2557, 2593
2515, 2671, 2618, 2613
2572, 2589, 2653, 2650
2728, 2545, 2511, 2648
2598, 2601, 2632, 2719
2624, 2623, 2604, 2634
2658, 2729, 2706, 2721
2751, 2689, 2655, 2647
2628, 2591, 2586, 2601
2541, 2536, 2471, 2440
2485, 2374, 2341, 2322
2380, 2198, 2301, 2222
2158, 2200, 2178, 2162
2083, 2122, 2146, 2087
2000, 2026, 2006, 2028
2046, 1933, 1901, 1917
1955, 2006, 1997, 1831
1959, 1874, 1916, 1884
1853, 1803, 1835, 1877
1858, 1863, 1877, 1942
1846, 1837, 1774, 1788
1841, 1853, 1853, 1872
1862, 1850, 1844, 1865
1814, 1822, 1832, 1877
1805, 1789, 1868, 1790
1871, 1814, 1886, 1856
1913, 1873, 1869, 1891
1948, 1930, 1955, 1882
1913, 1947, 1944, 1964
1979, 2038, 1981, 2034
2115, 2058, 2018, 2050
2132, 2199, 2164, 2269
2086, 2130, 2181, 2203
2283, 2289, 2239, 2291
2283, 2321, 2357, 2311
2248, 2249, 2347, 2253
2350, 2316, 2293, 2289
2325, 2297, 2315, 2264
2236, 2239, 2171, 2126
2214, 2131, 2137, 2142
2141, 2065, 2060, 2107
2070, 2023, 1966, 2009
2013, 2041, 1982, 1976
1911, 1899, 1903, 1931
1866, 1907, 1906, 1848
1780, 1804, 1843, 1879
1868, 1755, 1849, 1825
1792, 1783, 1811, 1697
1740, 1719, 1722, 1707
1726, 1675, 1722, 1719
1735, 1744, 1719, 1737
1712, 1664, 1684, 1681
1679, 1732, 1667, 1610
1626, 1675, 1585, 1661
1634, 1658, 1640, 1606
1659, 1661, 1638, 1654
1613, 1638, 1661, 1569
1593, 1632, 1598, 1605
1691, 1588, 1618, 1669
1599, 1563, 1676, 1594
1664, 1637, 1558, 1642
1602, 1634, 1600, 1726
1696, 1602, 1565, 1622
1586, 1625, 1616, 1676
1621, 1639, 1620, 1672
1593, 1637, 1660, 1654
1644, 1646, 1707, 1699
1663, 1732, 1676, 1735
1705, 1668, 1666, 1699
1633, 1750, 1674, 1670
1693, 1662, 1666, 1625
1598, 1649, 1605, 1624
1652, 1595, 1603, 1593
1660, 1614, 1622, 1599
1620, 1512, 1509, 1596
1520, 1561, 1587, 1596
1491, 1510, 1613, 1534
1498, 1519, 1516, 1502
1544, 1511, 1480, 1563
1500, 1574, 1523, 1498
1503, 1442, 1446, 1518
1438, 1511, 1366, 1537
1493, 1419, 1475, 1438
1416, 1473, 1469, 1383
1415, 1449, 1461, 1454
1399, 1342, 1517, 1425
1460, 1426, 1460, 1492
1410, 1374, 1406, 1469
1437, 1434, 1441, 1380
1386, 1398, 1356, 1423
1423, 1370, 1418, 1455
1340, 1360, 1421, 1438
1433, 1389, 1437, 1435
1407, 1423, 1390, 1373
1417, 1423, 1369, 1374
1393, 1419, 1380, 1417
1405, 1360, 1390, 1423
1369, 1384, 1411, 1415
1464, 1384, 1353, 1385
1413, 1402, 1448, 1450
1376, 1452, 1368, 1372
1398, 1405, 1356, 1371
1411, 1441, 1339, 1409
1408, 1435, 1382, 1314
1351, 1380, 1377, 1385
1428, 1384, 1398, 1445
1349, 1333, 1461, 1382
1482, 1387, 1402, 1446
1442, 1423, 1417, 1437
1436, 1422, 1447, 1382
1446, 1464, 1420, 1497
1397, 1398, 1457, 1411
1374, 1429, 1476, 1447
1397, 1421, 1462, 1485
1498, 1398, 1390, 1425
1428, 1455, 1465, 1394
1449, 1481, 1450, 1390
1503, 1515, 1487, 1527
1506, 1431, 1469, 1474
1437, 1495, 1465, 1525
1555, 1491, 1415, 1467
1479, 1492, 1522, 1520
1530, 1520, 1496, 1483
1600, 1524, 1500, 1515
1529, 1611, 1573, 1613
1594, 1589, 1650, 1638
1587, 1659, 1640, 1613
1639, 1732, 1720, 1719
1690, 1673, 1726, 1686
1748, 1765, 1805, 1772
1795, 1831, 1805, 1930
1852, 1864, 1957, 1876
1864, 2007, 2061, 2009
1989, 2141, 2166, 2012
2188, 2280, 2202, 2285
2382, 2340, 2411, 2387
2417, 2484, 2514, 2495
2550, 2639, 2734, 2810
2759, 2865, 2861, 2927
2978, 2890, 3114, 3113
3034, 3165, 3141, 3190
3230, 3158, 3231, 3262
3310, 3253, 3294, 3306
3331, 3315, 3230, 3274
3402, 3336, 3348, 3247
3191, 3260, 3209, 3162
3178, 3073, 3064, 3093
3031, 3044, 3008, 2930
2884, 2842, 2745, 2739
2735, 2716, 2736, 2664
2638, 2573, 2548, 2664
2584, 2573, 2516, 2463
2500, 2460, 2431, 2380
2416, 2417, 2421, 2318
2316, 2348, 2282, 2300
2287, 2301, 2275, 2252
2195, 2227, 2262, 2194
2103, 2159, 2171, 2132
2204, 2167, 2203, 2103
1985, 2143, 2035, 2090
2089, 2068, 1986, 1976
2056, 2071, 2029, 2024
2066, 2076, 2080, 2069
2154, 2060, 2015, 2009
1989, 2109, 2045, 2146
2067, 2016, 2084, 2146
2143, 2093, 2081, 2147
2163, 2134, 2179, 2118
2132, 2179, 2176, 2165
2200, 2258, 2285, 2266
2292, 2297, 2232, 2308
2360, 2371, 2362, 2312
2306, 2417, 2439, 2428
2423, 2459, 2379, 2418
2435, 2391, 2468, 2431
2381, 2451, 2434, 2469
2441, 2488, 2514, 2441
2417, 2429, 2336, 2390
2472, 2323, 2379, 2384
2322, 2351, 2328, 2363
2384, 2391, 2357, 2208
2283, 2372, 2332, 2297
2310, 2308, 2306, 2308
2347, 2380, 2394, 2404
2373, 2367, 2387, 2414
2471, 2532, 2461, 2437
2470, 2514, 2474, 2551
2530, 2612, 2641, 2604
2748, 2742, 2759, 2685
2780, 2757, 2798, 2845
2873, 2889, 2893, 3001
2968, 2999, 3001, 3149
3102, 3078, 3030, 3140
3149, 3003, 3126, 3142
3122, 3088, 3214, 3186
3170, 3187, 3076, 3067
3070, 3122, 3035, 3040
3049, 3135, 2932, 3008
2959, 2957, 2839, 3007
2868, 2778, 2794, 2776
2841, 2703, 2766, 2749
2641, 2693, 2621, 2587
2631, 2611, 2664, 2664
2588, 2537, 2482, 2551
2483, 2628, 2592, 2539
2541, 2510, 2452, 2430
2541, 2608, 2519, 2553
2582, 2590, 2521, 2583
2604, 2630, 2628, 2540
2607, 2583, 2624, 2612
2611, 2627, 2623, 2591
2634, 2625, 2653, 2633
2573, 2657, 2505, 2609
2576, 2529, 2679, 2623
2563, 2674, 2630, 2638
2516, 2507, 2610, 2523
2480, 2547, 2497, 2492
2452, 2408, 2417, 2400
2394, 2347, 2349, 2327
2328, 2322, 2302, 2231
2340, 2250, 2239, 2223
2213, 2250, 2184, 2189
2203, 2135, 2129, 2085
2148, 2124, 2230, 2200
2079, 2075, 2154, 1993
2077, 2081, 2037, 2076
2010, 2043, 2007, 2027
2016, 2021, 2049, 1938
2050, 1984, 2044, 2043
2067, 2010, 2030, 1997
1976, 1990, 1962, 2020
1949, 1987, 1974, 2000
1970, 1991, 1924, 2034
1949, 2003, 1950, 1967
1914, 1987, 1957, 1955
1899, 1939, 1993, 1975
2020, 2018, 2046, 1991
1995, 2015, 1959, 2063
2130, 2066, 2049, 2020
2063, 2091, 2138, 2078
2096, 2114, 2100, 2106
2146, 2156, 2203, 2221
2195, 2130, 2204, 2237
2424, 2318, 2360, 2364
2455, 2480, 2459, 2554
2559, 2544, 2585, 2548
2617, 2648, 2659, 2693
2804, 2805, 2850, 2935
2894, 2932, 2986, 3009
3152, 3176, 3099, 3198
3263, 3211, 3275, 3286
3260, 3340, 3328, 3336
3343, 3460, 3379, 3415
3408, 3396, 3416, 3414
3345, 3313, 3367, 3378
3281, 3274, 3344, 3210
3183, 3126, 3135, 3103
3166, 3030, 3142, 3074
2975, 2902, 2906, 2906
2855, 2833, 2699, 2730
2767, 2673, 2764, 2606
2607, 2677, 2631, 2563
2506, 2525, 2555, 2457
2490, 2557, 2401, 2508
2344, 2344, 2382, 2351
2325, 2391, 2294, 2281
2244, 2284, 2318, 2293
2204, 2226, 2266, 2109
2177, 2209, 2114, 2126
2149, 2092, 2096, 2124
2086, 2020, 2092, 2059
2010, 1969, 2040, 2052
2011, 1953, 1945, 1932
2010, 1913, 1890, 1923
2014, 1903, 1976, 1924
1928, 1867, 1899, 1942
1916, 1947, 1821, 1830
1812, 1823, 1863, 1864
1816, 1823, 1860, 1783
1718, 1804, 1854, 1885
1907, 1834, 1815, 1763
1807, 1817, 1806, 1791
1837, 1825, 1730, 1777
1832, 1815, 1817, 1835
1732, 1751, 1764, 1737
1758, 1762, 1828, 1827
1777, 1761, 1843, 1705
1744, 1724, 1793, 1800
1696, 1684, 1678, 1683
1789, 1747, 1688, 1753
1718, 1761, 1767, 1688
1683, 1750, 1723, 1755
1708, 1681, 1637, 1634
1706, 1619, 1615, 1677
1683, 1747, 1677, 1639
1680, 1693, 1702, 1740
1702, 1768, 1714, 1674
1728, 1708, 1738, 1769
1692, 1690, 1739, 1758
1743, 1738, 1740, 1794
1805, 1713, 1779, 1759
1777, 1766, 1808, 1810
1782, 1793, 1819, 1853
1898, 1946, 1869, 1894
1888
*END

*EOF
