*TYPE		=  Raw
*CLASS		=  ASCII CLASS
*SAMPLE		=  Ni-ZnCdS
*COMMENT	=   
*FNAME		=  ni_Theta_2-Theta.asc
*DATE		=  01-Jun-26 16:23

*GROUP_COUNT	=  1
*GONIO		=  SmartLab, 0.000000
*ATTACHMENT	=  Standard Z stage
*ASC		=  0, 0, 0.000000, 0.000000
*I_MONOCHRO	=  Soller_slit_5.0deg, 0.000000
*FILTER		=  Cu_K-beta
*C_MONOCHRO	=  None, 0.000000
*SLIT_NAME	=  0, Incident slit
*SLIT_NAME	=  1, Receiving slit # 1
*SLIT_NAME	=  2, Receiving slit # 2
*COUNTER	=  D/teX Ultra, 0
*POS_FORMAT	=  0
*SCAN_AXIS	=  2theta/theta
*MEAS_MODE	=  Continuous Scanning
*TARGET		=  29
*XRAY_CHAR	=  K-ALPHA
*WAVE_LENGTH1	=  1.54059
*WAVE_LENGTH2	=  1.54441
*THICKNESS	=  0, 0.000000
*MU		=  0, 0.000000
*SCAN_MODE	=  2theta/theta
*SPEED_DIM	=  sec./step
*XUNIT		=  deg.
*YUNIT		=  counts
*SCALE_MODE	=  1
*REP_COUNT	=  0
*SE_COUNT	=  0
*STD_MATERIAL	=  Unknown, Unknown, 0.000000, 0.000000, 0.000000, 0.000000, 0.000000, 0.000000
*LATT_CONS	=  0, Unknown, Unknown, 0.000000, 0.000000, 0.000000, 0.000000, 0.000000, 0.000000
*SEC_COUNT	=  1
*TSPEC_SIZE	=  0
*EXTRA_SIZE	=  0
*MEMO		=   

*BEGIN
*GROUP		=  0
*START		=  4
*STOP		=  80
*STEP		=  0.02
*OFFSET		=  0.000000
*SPEED		=  0.12
*SLIT_SPEC	=  0, 1/2deg, 1, 0.000000
*SLIT_SPEC	=  1, 20.000mm, 20, 0.000000
*SLIT_SPEC	=  2, 20.000mm, 20, 0.000000
*KV		=  40
*MA		=  150
*LOW		=  0.000000
*HIGH		=  0.000000
*CTEMPER	=  0, 0.000000
*CTEMPER	=  1, 0.000000
*CTEMPER	=  2, 0.000000
*PAREX		=  0, 0.000000
*PAREX		=  1, 0.000000
*PAREX		=  2, 0.000000
*PAREX		=  3, 0.000000
*PAREX		=  4, 0.000000
*PAREX		=  5, 0.000000
*PAREX		=  6, 0.000000
*PAREX		=  7, 0.000000
*PAREX		=  8, 0.000000
*PAREX		=  9, 0.000000
*PAREX		=  10, 0.000000
*PAREX		=  11, 0.000000
*PAREX		=  12, 0.000000
*PAREX		=  13, 0.000000
*PAREX		=  14, 0.000000
*PAREX		=  15, 0.000000
*FULL_SCALE	=  318120
*INDEX		=  0, 0, 0
*COUNT		=  3801
12775, 12790, 12791, 13155
12973, 13226, 13227, 13184
13392, 13443, 13376, 13540
13466, 13745, 13713, 13980
13949, 13940, 14112, 14468
14379, 14313, 14693, 14864
14908, 15067, 15378, 15310
15585, 15688, 15845, 16036
16334, 16383, 16781, 16659
16849, 17038, 17409, 17536
17615, 17822, 17896, 18493
18617, 18986, 19010, 19560
19913, 19893, 20294, 20698
20826, 21348, 21911, 22485
22328, 22741, 23110, 23789
24132, 24815, 24869, 25138
25921, 26498, 26694, 27310
27854, 27857, 28513, 28779
29388, 29700, 29576, 30554
30594, 30874, 30843, 31135
31295, 31430, 31703, 31619
31514, 31812, 31603, 31670
31369, 31326, 30776, 30808
30884, 30360, 30247, 30026
30067, 29607, 29298, 29266
28770, 28318, 28367, 28135
27551, 27071, 27024, 26650
26825, 26640, 26202, 26020
25427, 25407, 25033, 24801
24697, 24415, 24028, 23882
23642, 23493, 23331, 23107
23030, 22842, 22438, 22055
21899, 21896, 21531, 21518
21435, 21143, 21066, 20682
20615, 20636, 20173, 19873
19811, 19819, 20009, 19334
19163, 19201, 19042, 19245
19009, 18823, 18511, 18409
18444, 18219, 18370, 18358
17961, 17932, 17659, 17633
17645, 17385, 17214, 17366
17321, 17149, 17201, 16963
17288, 17082, 17013, 16765
16835, 16695, 16783, 16584
16998, 16462, 16707, 16430
16531, 16637, 16554, 16392
16613, 16437, 16337, 16496
16287, 16134, 16383, 16242
16321, 16627, 16493, 16243
16191, 16251, 16485, 16334
16486, 16143, 16421, 16277
16254, 16314, 16331, 16170
16367, 16227, 16423, 16287
16255, 16096, 16055, 16168
16083, 15929, 16017, 15883
15837, 16026, 15961, 15776
15635, 15728, 15906, 15489
15293, 15429, 15477, 15382
15397, 15378, 15281, 15244
15269, 15325, 14992, 15098
15198, 14851, 14939, 14787
14905, 14759, 14703, 14544
14623, 14715, 14466, 14509
14409, 14348, 14447, 14318
14220, 14297, 14169, 14037
14028, 14256, 14083, 14109
14039, 13821, 14090, 13708
13697, 13862, 13895, 13547
13670, 13748, 13622, 13551
13389, 13489, 13313, 13203
13339, 13259, 13266, 13155
13285, 12950, 13214, 13349
13134, 13247, 13078, 12893
12778, 12948, 12976, 13059
12818, 12616, 12690, 12838
12723, 12779, 12545, 12696
12615, 12618, 12719, 12782
12522, 12341, 12439, 12378
12505, 12391, 12471, 12346
12369, 12254, 12140, 12475
12240, 12087, 12094, 12253
12182, 12048, 12185, 12264
12079, 12167, 12091, 12278
12111, 12072, 12002, 12091
11997, 11934, 12011, 11974
11868, 11911, 12127, 11955
11834, 11826, 11924, 11888
11926, 12095, 11892, 12195
11921, 12117, 12028, 12037
12163, 12171, 11973, 12267
12450, 12274, 12429, 12557
12563, 12291, 12493, 12492
12430, 12256, 12205, 12090
12337, 12045, 12144, 12005
11938, 11737, 11937, 11918
11888, 12136, 11826, 12216
12080, 12232, 12123, 12139
12304, 12117, 11993, 12048
12218, 12253, 12264, 12317
12428, 12458, 12586, 12322
12618, 12579, 12543, 12476
12736, 12709, 12846, 12761
12898, 13003, 13122, 13116
13193, 13575, 13452, 13610
13704, 13580, 13773, 13785
13982, 13990, 14372, 14382
14514, 14314, 14562, 14863
15010, 15043, 15034, 15151
15423, 15662, 15476, 15564
15714, 15816, 15903, 15995
16048, 15964, 16056, 16105
15964, 16302, 16338, 16512
16481, 16362, 16511, 16388
16388, 16395, 16399, 16335
16411, 16162, 16405, 16262
16309, 16267, 16299, 16270
16318, 16137, 15830, 16010
15887, 16106, 16122, 15888
16040, 15709, 15946, 15872
15769, 15642, 15811, 15849
15874, 15821, 15559, 15521
15473, 15437, 15717, 15347
15333, 15215, 15371, 15145
15250, 15122, 15113, 15021
15038, 15231, 15177, 14827
14807, 14871, 14931, 14860
14639, 14757, 14826, 14637
14461, 14543, 14637, 14398
14391, 14372, 14345, 14282
14248, 14264, 14204, 14200
14107, 13983, 13895, 13883
13955, 13861, 13762, 13816
13795, 13655, 13578, 13548
13499, 13678, 13269, 13475
13472, 13594, 13182, 13227
13214, 13120, 13110, 13163
13185, 13090, 13041, 13194
12817, 12690, 12766, 12831
12797, 12504, 12533, 12682
12561, 12530, 12258, 12495
12309, 12400, 12203, 12328
12274, 12283, 12138, 12116
12168, 12228, 12110, 11987
11961, 11909, 11789, 11918
11695, 11822, 11785, 11823
11946, 11812, 11603, 11654
11696, 11562, 11398, 11416
11556, 11446, 11345, 11358
11377, 11267, 11415, 11382
11276, 11325, 11079, 11181
11148, 11158, 10929, 10920
10880, 11021, 10791, 11045
10854, 10984, 10975, 10762
11112, 11014, 10950, 10834
10694, 10793, 10586, 10748
10567, 10770, 10828, 10494
10584, 10463, 10521, 10511
10429, 10503, 10463, 10568
10339, 10534, 10272, 10374
10365, 10344, 10561, 10278
10404, 10243, 10466, 10375
10164, 10143, 10114, 10281
10249, 10353, 10174, 10205
10027, 10091, 10137, 9918
10067, 10099, 10053, 9911
9964, 10030, 9958, 10138
9966, 9825, 10082, 9928
9690, 9951, 9870, 9819
9867, 9731, 9804, 9698
9867, 9598, 9805, 9703
10000, 9884, 9676, 9685
9776, 9647, 9834, 9622
9666, 9763, 9484, 9532
9750, 9482, 9592, 9640
9651, 9820, 9625, 9618
9765, 9711, 9638, 9719
9629, 9540, 9714, 9607
9454, 9396, 9529, 9454
9416, 9580, 9591, 9480
9495, 9527, 9432, 9402
9436, 9552, 9435, 9277
9315, 9208, 9073, 9317
9095, 9231, 9332, 9248
9191, 9447, 9317, 9210
9233, 9123, 9253, 9153
9177, 9123, 9033, 9225
9180, 9112, 9244, 8850
9059, 9087, 8968, 9100
9087, 9117, 9030, 9007
9031, 9019, 9096, 8839
8894, 8983, 8897, 8896
9088, 8892, 9059, 8886
8807, 8944, 8884, 8862
8823, 8745, 8848, 8812
8918, 8862, 8740, 8845
8771, 8755, 8669, 8868
8753, 8661, 8706, 8754
8791, 8752, 8676, 8649
8776, 8690, 8621, 8651
8619, 8483, 8748, 8701
8604, 8737, 8635, 8703
8615, 8610, 8677, 8554
8458, 8610, 8603, 8703
8553, 8573, 8682, 8612
8627, 8526, 8634, 8671
8453, 8592, 8555, 8664
8505, 8470, 8694, 8617
8521, 8607, 8386, 8690
8540, 8453, 8452, 8562
8509, 8546, 8449, 8413
8542, 8552, 8613, 8471
8483, 8392, 8269, 8533
8387, 8469, 8558, 8499
8420, 8505, 8278, 8428
8496, 8389, 8408, 8355
8542, 8495, 8447, 8337
8578, 8483, 8578, 8577
8698, 8335, 8474, 8442
8486, 8343, 8293, 8486
8368, 8496, 8308, 8388
8305, 8360, 8348, 8346
8484, 8370, 8377, 8243
8257, 8276, 8336, 8309
8343, 8276, 8282, 8219
8264, 8206, 8348, 8371
8397, 8267, 8400, 8315
8363, 8345, 8155, 8449
8460, 8287, 8309, 8242
8146, 8493, 8123, 8384
8349, 8264, 8310, 8390
8485, 8449, 8549, 8472
8409, 8318, 8353, 8488
8341, 8415, 8418, 8482
8420, 8462, 8596, 8398
8490, 8455, 8365, 8374
8376, 8339, 8538, 8399
8374, 8568, 8540, 8591
8501, 8479, 8414, 8688
8464, 8604, 8529, 8609
8696, 8619, 8837, 8749
8755, 8869, 8848, 8828
8798, 8806, 8835, 9088
9063, 8794, 9028, 9255
9004, 8905, 9263, 9323
9345, 9202, 9268, 9146
9385, 9254, 9327, 9379
9319, 9551, 9446, 9511
9418, 9461, 9454, 9507
9526, 9570, 9702, 9662
9607, 9644, 9753, 9719
9554, 9884, 9651, 9727
9745, 9603, 9846, 9696
9645, 9934, 9783, 9900
9747, 9808, 9785, 9819
9732, 9964, 9920, 10066
9942, 9971, 10061, 9958
9995, 10024, 10119, 10243
10408, 10367, 10466, 10303
10422, 10493, 10826, 10850
10764, 11008, 11019, 11122
11083, 11322, 11444, 11603
11637, 11847, 11808, 11841
12000, 11986, 12114, 12136
12170, 12239, 12240, 12418
12414, 12253, 12428, 12531
12313, 12643, 12418, 12432
12732, 12802, 12867, 12791
12773, 12850, 13116, 13301
13407, 13573, 13576, 13738
13837, 13990, 14051, 14298
14639, 14739, 14815, 15210
15301, 15464, 15778, 15856
16516, 16834, 16750, 17349
17699, 17740, 18430, 18399
18886, 19055, 19843, 19925
20196, 20810, 21036, 21337
21865, 21830, 22123, 22493
22871, 22927, 23319, 23278
23611, 23715, 23745, 23978
23957, 24171, 24273, 23922
23744, 23333, 23544, 23270
23004, 22580, 22319, 22390
22001, 21814, 21503, 21276
21225, 20786, 20365, 19542
19409, 18738, 18356, 17595
16983, 16533, 16273, 15708
15349, 15131, 14571, 14396
14178, 13851, 13648, 13272
12996, 12814, 12706, 12305
12090, 12069, 11692, 11401
11511, 11067, 11104, 10925
10892, 10515, 10643, 10444
10287, 10325, 10245, 9919
9891, 9831, 9540, 9744
9652, 9547, 9550, 9459
9402, 9105, 9255, 9107
9075, 9143, 9012, 9073
8855, 8998, 9011, 8924
8895, 8862, 8895, 8878
8945, 8882, 8907, 8977
8826, 8964, 9031, 9226
9155, 9324, 9086, 9166
9345, 9484, 9375, 9772
9732, 9738, 9873, 9874
9954, 9921, 9976, 9921
9780, 9679, 9589, 9500
9438, 9330, 9235, 9201
9187, 9072, 8778, 8525
8791, 8605, 8536, 8362
8451, 8155, 8188, 7972
8064, 8133, 8017, 7872
7828, 7832, 7880, 7766
7562, 7643, 7607, 7620
7451, 7409, 7447, 7443
7295, 7452, 7269, 7354
7332, 7287, 7119, 7199
7199, 7249, 7165, 7107
7114, 7029, 7089, 7047
6966, 7084, 7013, 6964
6858, 6976, 6941, 6919
6927, 6927, 6779, 6674
6835, 6780, 6850, 6807
6733, 6671, 6809, 6633
6646, 6796, 6686, 6720
6561, 6604, 6478, 6545
6519, 6482, 6477, 6397
6489, 6440, 6411, 6340
6367, 6363, 6335, 6377
6420, 6228, 6288, 6404
6207, 6285, 6369, 6224
6245, 6186, 6143, 6272
6180, 6101, 6197, 6167
6213, 6096, 6094, 6095
6115, 6147, 6077, 6123
6147, 5998, 5937, 6091
6054, 5986, 5952, 6033
6054, 5943, 5900, 5790
5955, 5952, 5921, 6046
5908, 5895, 6018, 5897
5843, 5868, 5874, 5784
5711, 5857, 5761, 5845
5899, 5896, 5912, 5749
5747, 5810, 5796, 5759
5807, 5781, 5792, 5868
5859, 5783, 5747, 5703
5691, 5622, 5629, 5733
5701, 5729, 5561, 5640
5629, 5657, 5628, 5531
5696, 5558, 5519, 5596
5632, 5434, 5536, 5596
5552, 5491, 5460, 5520
5528, 5654, 5545, 5536
5566, 5509, 5448, 5562
5541, 5566, 5403, 5451
5594, 5533, 5463, 5376
5613, 5589, 5447, 5434
5285, 5406, 5537, 5491
5395, 5436, 5430, 5269
5433, 5461, 5334, 5415
5412, 5388, 5301, 5377
5286, 5328, 5455, 5471
5426, 5550, 5408, 5296
5353, 5397, 5307, 5507
5322, 5390, 5358, 5360
5248, 5320, 5509, 5312
5453, 5440, 5516, 5256
5459, 5289, 5288, 5314
5433, 5480, 5428, 5290
5376, 5359, 5432, 5328
5347, 5272, 5270, 5387
5266, 5317, 5373, 5351
5368, 5352, 5414, 5232
5354, 5330, 5299, 5335
5312, 5314, 5292, 5379
5273, 5264, 5267, 5377
5225, 5377, 5281, 5350
5358, 5233, 5266, 5165
5317, 5371, 5247, 5246
5284, 5180, 5224, 5326
5192, 5245, 5134, 5326
5026, 5199, 5182, 5145
5237, 5116, 5233, 5149
5289, 5250, 5238, 5222
5320, 5162, 5239, 5246
5249, 5190, 5016, 5093
5204, 5042, 5165, 5013
5154, 5205, 5145, 5010
5085, 5192, 5081, 5128
5022, 5201, 5116, 5082
5105, 5231, 5009, 5096
5117, 4969, 5095, 5088
5086, 5148, 5036, 5173
5135, 5049, 5160, 4990
4987, 4996, 5080, 4981
5042, 5002, 5026, 5020
5190, 5075, 4965, 5146
5081, 5015, 5178, 5054
5061, 5164, 5050, 5139
5070, 5045, 4998, 5083
5027, 5053, 5205, 5082
5242, 5138, 5017, 5196
5076, 5170, 5230, 5106
5109, 5106, 5094, 5175
5253, 5101, 5163, 5177
5221, 5216, 5227, 5178
5184, 5179, 5175, 5265
5196, 5242, 5213, 5333
5211, 5231, 5352, 5307
5328, 5262, 5352, 5359
5264, 5393, 5304, 5487
5461, 5512, 5429, 5405
5471, 5358, 5421, 5499
5323, 5367, 5309, 5332
5171, 5306, 5285, 5219
5348, 5139, 5297, 5288
5241, 5240, 5274, 5110
5150, 5221, 5228, 5226
5181, 5228, 5264, 5002
5083, 5070, 5031, 5109
5122, 5115, 5087, 5083
5018, 5061, 5109, 5117
5042, 5024, 5008, 4928
5059, 5111, 4968, 5034
4961, 5010, 5044, 5114
4976, 4890, 4915, 4883
4981, 4961, 4851, 4907
4957, 4809, 4839, 5031
4914, 4907, 4919, 4752
4886, 5010, 4800, 4831
4856, 4818, 4851, 4849
5007, 4957, 4952, 4834
4872, 4725, 4901, 4854
4605, 4818, 4896, 4679
4745, 4860, 4864, 4750
4812, 4665, 4803, 4788
4767, 4845, 4778, 4805
4720, 4735, 4727, 4740
4664, 4724, 4849, 4785
4744, 4780, 4647, 4713
4706, 4690, 4703, 4672
4785, 4635, 4642, 4676
4635, 4677, 4795, 4720
4646, 4694, 4657, 4793
4653, 4621, 4735, 4824
4671, 4722, 4643, 4685
4585, 4661, 4656, 4649
4760, 4579, 4626, 4617
4578, 4576, 4530, 4662
4493, 4631, 4593, 4574
4543, 4586, 4566, 4448
4564, 4604, 4595, 4564
4560, 4637, 4591, 4496
4524, 4468, 4503, 4458
4506, 4461, 4507, 4460
4644, 4505, 4566, 4493
4527, 4452, 4470, 4449
4510, 4575, 4431, 4557
4581, 4493, 4444, 4455
4413, 4526, 4483, 4471
4440, 4418, 4404, 4496
4500, 4487, 4358, 4562
4493, 4392, 4407, 4405
4435, 4478, 4557, 4408
4459, 4531, 4521, 4442
4434, 4401, 4404, 4393
4422, 4528, 4459, 4302
4478, 4377, 4416, 4367
4445, 4424, 4513, 4516
4357, 4370, 4531, 4414
4403, 4359, 4244, 4346
4327, 4353, 4285, 4520
4372, 4349, 4450, 4382
4376, 4308, 4365, 4441
4331, 4365, 4462, 4314
4417, 4471, 4475, 4378
4362, 4443, 4444, 4406
4432, 4368, 4368, 4392
4347, 4360, 4381, 4481
4305, 4421, 4303, 4367
4430, 4454, 4449, 4409
4368, 4404, 4311, 4362
4362, 4320, 4372, 4414
4393, 4429, 4305, 4241
4227, 4379, 4422, 4342
4296, 4370, 4333, 4273
4368, 4350, 4354, 4411
4427, 4413, 4399, 4316
4283, 4286, 4335, 4289
4254, 4268, 4291, 4337
4425, 4350, 4408, 4441
4271, 4344, 4394, 4314
4335, 4380, 4338, 4497
4391, 4390, 4503, 4499
4337, 4516, 4420, 4346
4531, 4531, 4521, 4576
4528, 4697, 4675, 4525
4706, 4666, 4568, 4588
4670, 4622, 4602, 4796
4629, 4770, 4819, 4794
4816, 4730, 4907, 4753
4778, 4843, 4926, 4826
4819, 4805, 4803, 4718
4660, 4692, 4736, 4784
4718, 4724, 4614, 4522
4654, 4538, 4591, 4558
4624, 4625, 4525, 4460
4505, 4648, 4497, 4554
4432, 4539, 4522, 4490
4455, 4412, 4680, 4486
4480, 4442, 4406, 4308
4467, 4389, 4443, 4537
4442, 4468, 4462, 4487
4390, 4352, 4506, 4440
4437, 4426, 4435, 4409
4541, 4409, 4385, 4300
4365, 4474, 4372, 4357
4336, 4398, 4392, 4279
4317, 4316, 4359, 4357
4391, 4288, 4322, 4292
4246, 4457, 4366, 4407
4355, 4385, 4263, 4327
4281, 4495, 4280, 4293
4332, 4260, 4297, 4429
4232, 4298, 4362, 4243
4359, 4266, 4303, 4338
4263, 4374, 4371, 4275
4335, 4281, 4227, 4275
4302, 4266, 4267, 4352
4204, 4326, 4300, 4335
4417, 4298, 4362, 4363
4281, 4248, 4319, 4299
4446, 4269, 4265, 4275
4367, 4298, 4335, 4282
4442, 4335, 4222, 4328
4283, 4275, 4359, 4348
4404, 4254, 4255, 4317
4369, 4288, 4369, 4378
4233, 4375, 4314, 4293
4380, 4287, 4369, 4408
4391, 4257, 4408, 4457
4461, 4333, 4391, 4398
4324, 4418, 4304, 4361
4364, 4519, 4444, 4360
4473, 4272, 4338, 4501
4424, 4363, 4477, 4311
4413, 4423, 4572, 4400
4502, 4384, 4409, 4386
4522, 4487, 4459, 4541
4620, 4547, 4495, 4412
4570, 4636, 4557, 4520
4505, 4607, 4659, 4516
4558, 4600, 4572, 4682
4512, 4540, 4507, 4641
4517, 4609, 4554, 4565
4527, 4621, 4469, 4427
4455, 4469, 4365, 4517
4442, 4306, 4341, 4369
4406, 4286, 4233, 4298
4390, 4239, 4272, 4151
4145, 4189, 4211, 4269
4214, 4162, 4046, 4306
4215, 4188, 4078, 4228
4221, 4292, 4201, 4176
4196, 4204, 4309, 4146
4234, 4103, 4175, 4192
4111, 4048, 4021, 4110
4059, 4062, 4112, 4145
4037, 3975, 4236, 4068
3962, 3987, 3974, 4038
3968, 3994, 4071, 4138
4013, 4061, 4096, 4054
3989, 4142, 3927, 4085
3867, 4120, 3953, 3983
4019, 3984, 4003, 4026
3925, 3980, 3926, 3902
3921, 3974, 4030, 4050
3955, 3888, 3861, 3912
3921, 4089, 4079, 4066
3946, 3818, 4010, 3923
4014, 3917, 3931, 3927
4012, 3867, 3976, 3922
3933, 4053, 3813, 3943
3982, 3878, 3847, 3882
4000, 3932, 3949, 3974
3981, 4059, 3988, 3904
3895, 3930, 3912, 4029
3908, 3913, 3967, 3958
3809, 3910, 3978, 3944
3957, 3972, 3876, 3955
3896, 3920, 3827, 3924
3933, 3949, 3948, 3941
3962, 3880, 3992, 4064
4007, 3948, 3904, 3940
3961, 4076, 4015, 3937
3986, 3941, 3972, 4025
4054, 4003, 4051, 4049
3973, 4008, 3992, 3914
3966, 4128, 4014, 4069
4107, 4033, 4095, 4007
4005, 4149, 4221, 4057
4127, 4151, 4175, 4140
4196, 4174, 4047, 4247
4147, 4143, 4073, 4154
4116, 4082, 4103, 4153
4080, 4091, 3958, 4065
4007, 3981, 4050, 3998
4068, 4059, 4097, 4072
4001, 3923, 4156, 4043
4096, 4042, 4077, 3935
3967, 3955, 4015, 4030
3965, 4143, 4069, 4047
4092, 3983, 4126, 4067
4001, 4111, 4091, 4024
4040, 4109, 4111, 4081
4141, 4063, 4002, 4131
4053, 3964, 4004, 4089
4097, 4169, 4123, 4003
4021, 4027, 4069, 3932
4109, 4083, 4060, 4036
4066, 4083, 3995, 4043
4109, 4116, 4000, 4086
4050, 4086, 4020, 4085
3995, 4037, 4098, 4044
4002, 4144, 4115, 4023
4017, 3947, 4157, 4030
4017, 4122, 3963, 4128
4031, 4183, 3984, 4013
4059, 4073, 4106, 3993
4079, 3997, 4026, 4096
4112, 3875, 4019, 3991
3864, 3963, 4071, 4038
3979, 3967, 3965, 3981
4017, 3959, 3878, 3880
3824, 3955, 3879, 3864
3832, 3966, 3894, 3868
3869, 4005, 3772, 3877
3837, 3873, 3866, 3868
3846, 3866, 3773, 3794
3814, 3887, 3813, 3868
3726, 3733, 3798, 3790
3835, 3716, 3816, 3714
3641, 3700, 3662, 3747
3718, 3789, 3663, 3771
3686, 3751, 3653, 3685
3713, 3836, 3618, 3791
3703, 3748, 3666, 3687
3792, 3588, 3597, 3561
3798, 3611, 3637, 3616
3714, 3651, 3678, 3629
3563, 3525, 3653, 3698
3537, 3730, 3593, 3581
3588, 3643, 3568, 3603
3717, 3602, 3497, 3611
3654, 3678, 3515, 3757
3611, 3608, 3612, 3478
3519, 3509, 3548, 3613
3584, 3571, 3531, 3508
3499, 3652, 3554, 3552
3502, 3529, 3523, 3485
3471, 3529, 3579, 3599
3523, 3483, 3503, 3552
3551, 3591, 3529, 3391
3459, 3441, 3466, 3487
3442, 3483, 3517, 3449
3449, 3485, 3435, 3520
3510, 3518, 3593, 3459
3516, 3421, 3499, 3418
3521, 3438, 3389, 3409
3452, 3485, 3473, 3515
3394, 3471, 3504, 3454
3417, 3484, 3433, 3356
3385, 3403, 3337, 3389
3427, 3388, 3325, 3408
3402, 3454, 3406, 3418
3388, 3368, 3379, 3410
3336, 3391, 3483, 3346
3423, 3338, 3376, 3473
3477, 3455, 3323, 3331
3414, 3359, 3371, 3304
3440, 3381, 3373, 3405
3262, 3427, 3397, 3392
3315, 3333, 3348, 3392
3408, 3318, 3420, 3430
3364, 3448, 3349, 3307
3330, 3302, 3349, 3271
3363, 3291, 3285, 3292
3393, 3326, 3331, 3372
3360, 3284, 3400, 3297
3260, 3287, 3233, 3297
3353, 3341, 3303, 3250
3292, 3466, 3392, 3384
3419, 3350, 3353, 3335
3320, 3220, 3305, 3276
3211, 3230, 3265, 3241
3293, 3305, 3340, 3331
3320, 3240, 3282, 3254
3287, 3384, 3284, 3171
3259, 3347, 3309, 3376
3332, 3247, 3228, 3253
3254, 3301, 3339, 3219
3287, 3237, 3259, 3226
3314, 3192, 3234, 3222
3193, 3263, 3192, 3322
3229, 3230, 3244, 3268
3320, 3236, 3165, 3251
3276, 3104, 3203, 3198
3308, 3226, 3186, 3206
3190, 3230, 3192, 3151
3258, 3280, 3248, 3268
3185, 3219, 3284, 3136
3178, 3263, 3194, 3162
3317, 3175, 3204, 3155
3094, 3220, 3222, 3164
3169, 3228, 3231, 3298
3174, 3200, 3144, 3231
3119, 3189, 3107, 3104
3210, 3031, 3228, 3138
3220, 3167, 3159, 3211
3079, 3164, 3233, 3202
3159, 3144, 3135, 3196
3165, 3159, 3166, 3140
3094, 3034, 3206, 3181
3099, 3091, 2998, 3235
3174, 3088, 3139, 3062
3027, 3018, 3113, 3130
3109, 3185, 3069, 3178
3029, 3106, 3182, 3090
3062, 3155, 3103, 3144
3033, 3080, 3051, 3060
3132, 3110, 3078, 3088
3079, 3107, 3093, 3061
3102, 3122, 3106, 3052
3158, 3056, 3043, 3109
3022, 3096, 3122, 3192
3003, 3054, 3098, 3123
3046, 3122, 3057, 3092
3084, 3078, 3046, 3081
3123, 3075, 3068, 3080
3145, 3008, 3000, 3140
2986, 3104, 3060, 3100
3024, 3093, 3046, 3026
3016, 3023, 3124, 3075
3053, 3069, 3057, 3055
3054, 3068, 3078, 2985
2981, 2953, 2998, 3002
3043, 2968, 2967, 3121
2947, 2962, 2971, 2998
2980, 3008, 2908, 2979
3029, 3067, 3010, 3025
3007, 3077, 3034, 3016
2980, 2992, 2988, 2883
2986, 3010, 3007, 3023
2935, 2928, 3023, 3005
2944, 2883, 2960, 2997
3035, 2931, 2944, 2934
3044, 2913, 2993, 3090
3079, 2922, 2964, 2922
3064, 3050, 3014, 2982
3053, 2941, 2998, 2978
3064, 2998, 2935, 2992
2978, 2959, 2945, 3020
2942, 2996, 2967, 3031
2842, 2991, 2925, 2935
2959, 2899, 2901, 2993
2952, 2935, 2906, 2945
2970, 2917, 2883, 2957
2915, 2879, 3007, 2984
2984, 2968, 2875, 2963
2966, 2908, 2801, 2959
3028, 2920, 2879, 2851
2903, 2926, 2937, 2929
2879, 2942, 2955, 2795
2931, 3046, 2976, 2988
2968, 2900, 2885, 2921
2884, 2918, 2865, 3030
2913, 2905, 2945, 2971
2992, 3031, 2913, 2896
2910, 2934, 2935, 2931
2925, 2928, 2958, 2950
2922, 3013, 2939, 2911
2881, 2895, 2871, 2878
2990, 2934, 2926, 2909
2985, 2880, 2864, 2914
2920, 3075, 2921, 2849
2895, 2949, 2947, 2951
3013, 2900, 2941, 2959
2971, 2894, 2963, 2913
2917, 2926, 2982, 2984
2928, 2893, 2951, 2927
2822, 2856, 2983, 2946
2890, 3021, 2896, 2922
2946, 2935, 2895, 2845
2928, 2886, 2898, 2883
2996, 2943, 2910, 2888
2869, 2861, 2893, 2931
2747, 2867, 2812, 2825
2837, 2910, 2970, 2887
2827, 2898, 2832, 2976
2819, 2903, 2796, 2830
2866, 2857, 2811, 2867
2872, 2843, 2809, 2847
2822, 2776, 2846, 2822
2845, 2854, 2880, 2831
2877, 2869, 2942, 2802
2850, 2793, 2878, 2807
2745, 2702, 2852, 2789
2805, 2777, 2825, 2688
2756, 2813, 2774, 2775
2819, 2905, 2750, 2822
2850, 2848, 2840, 2845
2820, 2820, 2765, 2692
2765, 2824, 2674, 2769
2789, 2870, 2815, 2772
2734, 2817, 2826, 2826
2817, 2808, 2850, 2781
2852, 2903, 2842, 2697
2748, 2847, 2828, 2797
2754, 2768, 2873, 2770
2703, 2852, 2761, 2741
2829, 2834, 2764, 2715
2725, 2814, 2847, 2770
2768, 2742, 2710, 2692
2746, 2815, 2831, 2785
2827, 2821, 2789, 2814
2774, 2765, 2831, 2786
2757, 2737, 2866, 2871
2831, 2733, 2758, 2798
2748, 2786, 2789, 2844
2796, 2810, 2865, 2782
2780, 2851, 2784, 2766
2715, 2779, 2763, 2756
2795, 2737, 2742, 2771
2800, 2735, 2793, 2750
2808, 2773, 2778, 2765
2798, 2738, 2822, 2781
2742, 2821, 2716, 2879
2902, 2847, 2735, 2789
2822, 2798, 2737, 2753
2822, 2814, 2867, 2888
2763, 2789, 2781, 2791
2816, 2827, 2818, 2787
2850, 2884, 2752, 2857
2836, 2752, 2813, 2749
2826, 2852, 2782, 2784
2759, 2665, 2805, 2772
2755, 2825, 2807, 2736
2788, 2747, 2737, 2776
2710, 2748, 2752, 2720
2767, 2832, 2735, 2852
2703, 2784, 2664, 2774
2728, 2739, 2774, 2900
2727, 2759, 2808, 2823
2730, 2709, 2779, 2795
2769, 2793, 2735, 2725
2686, 2734, 2773, 2779
2683, 2750, 2732, 2691
2759, 2806, 2662, 2750
2756, 2766, 2683, 2780
2825, 2752, 2769, 2738
2737, 2690, 2631, 2752
2744, 2742, 2828, 2707
2823, 2816, 2753, 2662
2718, 2765, 2790, 2693
2720, 2777, 2853, 2724
2682, 2745, 2721, 2666
2702, 2694, 2679, 2741
2657, 2729, 2749, 2667
2648, 2803, 2709, 2801
2742, 2694, 2739, 2715
2738, 2770, 2697, 2728
2749, 2734, 2683, 2752
2698, 2665, 2749, 2660
2701, 2781, 2714, 2692
2680, 2779, 2768, 2712
2730, 2719, 2753, 2728
2751, 2718, 2673, 2652
2719, 2642, 2672, 2698
2717, 2712, 2618, 2711
2689, 2696, 2681, 2613
2703, 2607, 2616, 2666
2733, 2738, 2534, 2643
2675, 2672, 2660, 2706
2723, 2696, 2615, 2715
2729, 2731, 2675, 2667
2647, 2626, 2668, 2804
2768, 2816, 2657, 2775
2742, 2673, 2740, 2637
2632, 2595, 2731, 2668
2747, 2663, 2657, 2692
2657, 2766, 2706, 2641
2652, 2595, 2693, 2616
2689, 2721, 2719, 2643
2713, 2706, 2617, 2646
2712, 2693, 2793, 2711
2720, 2625, 2734, 2687
2743, 2753, 2640, 2659
2744, 2689, 2715, 2694
2755, 2729, 2683, 2744
2605, 2766, 2787, 2660
2695, 2658, 2643, 2751
2634, 2750, 2670, 2701
2697, 2704, 2696, 2692
2764, 2816, 2721, 2691
2649, 2675, 2705, 2728
2715, 2688, 2652, 2677
2697, 2752, 2709, 2601
2551, 2587, 2562, 2650
2608, 2616, 2696, 2727
2648, 2637, 2568, 2640
2741, 2576, 2657, 2674
2759, 2716, 2742, 2644
2705, 2649, 2725, 2651
2641, 2721, 2673, 2667
2644, 2595, 2509, 2622
2649, 2569, 2615, 2585
2650, 2676, 2612, 2605
2606, 2667, 2678, 2562
2661, 2629, 2623, 2638
2586, 2586, 2635, 2622
2647, 2649, 2601, 2712
2598, 2682, 2639, 2718
2584, 2558, 2658, 2548
2610, 2568, 2608, 2592
2674, 2548, 2650, 2648
2575, 2580, 2604, 2589
2567, 2649, 2586, 2657
2624, 2581, 2628, 2660
2662, 2662, 2615, 2623
2663, 2692, 2676, 2608
2579, 2589, 2683, 2636
2660, 2614, 2560, 2599
2562, 2760, 2547, 2651
2601, 2564, 2595, 2649
2626, 2673, 2645, 2638
2606, 2539, 2519, 2585
2597, 2634, 2603, 2707
2633, 2632, 2532, 2613
2629, 2529, 2561, 2562
2505, 2582, 2536, 2547
2569, 2562, 2679, 2615
2698, 2680, 2603, 2624
2566, 2622, 2600, 2639
2571, 2618, 2614, 2594
2628, 2614, 2558, 2596
2507, 2584, 2531, 2563
2571, 2560, 2569, 2561
2513, 2552, 2539, 2569
2616, 2547, 2643, 2585
2514, 2604, 2574, 2679
2509, 2563, 2579, 2656
2579
*END

*EOF
