May 18, 2026   15:38:33
Cyclic Voltammetry
File: 0_1ml
Data Source:  Experiment
Instrument Model:  CHI660D
Header: 
Note: 

Init E (V) = 0.6
High E (V) = 0.6
Low E (V) = 0
Init P/N = N
Scan Rate (V/s) = 0.05
Segment = 2
Sample Interval (V) = 0.001
Quiet Time (sec) = 2
Sensitivity (A/V) = 1e-5

Segment 1:
Ep = 0.183V
Eh = 0.244V
ip = 6.384e-6A
Ah = 8.414e-6C

Segment 2:
Ep = 0.252V
Eh = 0.193V
ip = -4.328e-6A
Ah = -5.398e-6C

Potential/V, Current/A, Charge/C, Time/s

Segment 1:
0.600, -1.384e-6, -2.769e-8, 2.000e-2
0.599, -1.242e-6, -5.253e-8, 4.000e-2
0.598, -1.183e-6, -7.619e-8, 6.000e-2
0.597, -1.147e-6, -9.913e-8, 8.000e-2
0.596, -1.115e-6, -1.214e-7, 1.000e-1
0.595, -1.087e-6, -1.432e-7, 1.200e-1
0.594, -1.060e-6, -1.644e-7, 1.400e-1
0.593, -1.034e-6, -1.851e-7, 1.600e-1
0.592, -1.009e-6, -2.052e-7, 1.800e-1
0.591, -9.861e-7, -2.250e-7, 2.000e-1
0.590, -9.647e-7, -2.443e-7, 2.200e-1
0.589, -9.427e-7, -2.631e-7, 2.400e-1
0.588, -9.222e-7, -2.816e-7, 2.600e-1
0.587, -9.017e-7, -2.996e-7, 2.800e-1
0.586, -8.805e-7, -3.172e-7, 3.000e-1
0.585, -8.623e-7, -3.344e-7, 3.200e-1
0.584, -8.432e-7, -3.513e-7, 3.400e-1
0.583, -8.243e-7, -3.678e-7, 3.600e-1
0.582, -8.058e-7, -3.839e-7, 3.800e-1
0.581, -7.880e-7, -3.997e-7, 4.000e-1
0.580, -7.715e-7, -4.151e-7, 4.200e-1
0.579, -7.563e-7, -4.302e-7, 4.400e-1
0.578, -7.397e-7, -4.450e-7, 4.600e-1
0.577, -7.247e-7, -4.595e-7, 4.800e-1
0.576, -7.082e-7, -4.737e-7, 5.000e-1
0.575, -6.940e-7, -4.876e-7, 5.200e-1
0.574, -6.789e-7, -5.011e-7, 5.400e-1
0.573, -6.641e-7, -5.144e-7, 5.600e-1
0.572, -6.500e-7, -5.274e-7, 5.800e-1
0.571, -6.373e-7, -5.402e-7, 6.000e-1
0.570, -6.229e-7, -5.526e-7, 6.200e-1
0.569, -6.091e-7, -5.648e-7, 6.400e-1
0.568, -5.961e-7, -5.767e-7, 6.600e-1
0.567, -5.827e-7, -5.884e-7, 6.800e-1
0.566, -5.698e-7, -5.998e-7, 7.000e-1
0.565, -5.571e-7, -6.109e-7, 7.200e-1
0.564, -5.460e-7, -6.218e-7, 7.400e-1
0.563, -5.361e-7, -6.326e-7, 7.600e-1
0.562, -5.227e-7, -6.430e-7, 7.800e-1
0.561, -5.101e-7, -6.532e-7, 8.000e-1
0.560, -4.994e-7, -6.632e-7, 8.200e-1
0.559, -4.871e-7, -6.729e-7, 8.400e-1
0.558, -4.767e-7, -6.825e-7, 8.600e-1
0.557, -4.642e-7, -6.918e-7, 8.800e-1
0.556, -4.529e-7, -7.008e-7, 9.000e-1
0.555, -4.437e-7, -7.097e-7, 9.200e-1
0.554, -4.332e-7, -7.184e-7, 9.400e-1
0.553, -4.233e-7, -7.268e-7, 9.600e-1
0.552, -4.130e-7, -7.351e-7, 9.800e-1
0.551, -4.020e-7, -7.431e-7, 1.000e+0
0.550, -3.926e-7, -7.510e-7, 1.020e+0
0.549, -3.832e-7, -7.586e-7, 1.040e+0
0.548, -3.741e-7, -7.661e-7, 1.060e+0
0.547, -3.648e-7, -7.734e-7, 1.080e+0
0.546, -3.551e-7, -7.805e-7, 1.100e+0
0.545, -3.477e-7, -7.875e-7, 1.120e+0
0.544, -3.369e-7, -7.942e-7, 1.140e+0
0.543, -3.277e-7, -8.008e-7, 1.160e+0
0.542, -3.206e-7, -8.072e-7, 1.180e+0
0.541, -3.117e-7, -8.134e-7, 1.200e+0
0.540, -3.028e-7, -8.195e-7, 1.220e+0
0.539, -2.952e-7, -8.254e-7, 1.240e+0
0.538, -2.868e-7, -8.311e-7, 1.260e+0
0.537, -2.793e-7, -8.367e-7, 1.280e+0
0.536, -2.713e-7, -8.421e-7, 1.300e+0
0.535, -2.630e-7, -8.474e-7, 1.320e+0
0.534, -2.556e-7, -8.525e-7, 1.340e+0
0.533, -2.475e-7, -8.574e-7, 1.360e+0
0.532, -2.399e-7, -8.622e-7, 1.380e+0
0.531, -2.321e-7, -8.669e-7, 1.400e+0
0.530, -2.248e-7, -8.714e-7, 1.420e+0
0.529, -2.186e-7, -8.757e-7, 1.440e+0
0.528, -2.108e-7, -8.800e-7, 1.460e+0
0.527, -2.033e-7, -8.840e-7, 1.480e+0
0.526, -1.967e-7, -8.880e-7, 1.500e+0
0.525, -1.902e-7, -8.918e-7, 1.520e+0
0.524, -1.838e-7, -8.954e-7, 1.540e+0
0.523, -1.776e-7, -8.990e-7, 1.560e+0
0.522, -1.695e-7, -9.024e-7, 1.580e+0
0.521, -1.638e-7, -9.057e-7, 1.600e+0
0.520, -1.582e-7, -9.088e-7, 1.620e+0
0.519, -1.509e-7, -9.118e-7, 1.640e+0
0.518, -1.450e-7, -9.147e-7, 1.660e+0
0.517, -1.391e-7, -9.175e-7, 1.680e+0
0.516, -1.320e-7, -9.202e-7, 1.700e+0
0.515, -1.267e-7, -9.227e-7, 1.720e+0
0.514, -1.214e-7, -9.251e-7, 1.740e+0
0.513, -1.147e-7, -9.274e-7, 1.760e+0
0.512, -1.086e-7, -9.296e-7, 1.780e+0
0.511, -1.024e-7, -9.316e-7, 1.800e+0
0.510, -9.799e-8, -9.336e-7, 1.820e+0
0.509, -9.214e-8, -9.354e-7, 1.840e+0
0.508, -8.529e-8, -9.371e-7, 1.860e+0
0.507, -8.147e-8, -9.388e-7, 1.880e+0
0.506, -7.452e-8, -9.403e-7, 1.900e+0
0.505, -6.869e-8, -9.416e-7, 1.920e+0
0.504, -6.488e-8, -9.429e-7, 1.940e+0
0.503, -5.862e-8, -9.441e-7, 1.960e+0
0.502, -5.363e-8, -9.452e-7, 1.980e+0
0.501, -4.977e-8, -9.462e-7, 2.000e+0
0.500, -4.432e-8, -9.471e-7, 2.020e+0
0.499, -3.860e-8, -9.478e-7, 2.040e+0
0.498, -3.324e-8, -9.485e-7, 2.060e+0
0.497, -2.881e-8, -9.491e-7, 2.080e+0
0.496, -2.387e-8, -9.496e-7, 2.100e+0
0.495, -1.911e-8, -9.499e-7, 2.120e+0
0.494, -1.525e-8, -9.502e-7, 2.140e+0
0.493, -1.026e-8, -9.504e-7, 2.160e+0
0.492, -5.335e-9, -9.506e-7, 2.180e+0
0.491, -1.332e-9, -9.506e-7, 2.200e+0
0.490, 4.780e-9, -9.505e-7, 2.220e+0
0.489, 8.900e-9, -9.503e-7, 2.240e+0
0.488, 1.210e-8, -9.501e-7, 2.260e+0
0.487, 1.793e-8, -9.497e-7, 2.280e+0
0.486, 2.061e-8, -9.493e-7, 2.300e+0
0.485, 2.650e-8, -9.488e-7, 2.320e+0
0.484, 3.076e-8, -9.481e-7, 2.340e+0
0.483, 3.438e-8, -9.475e-7, 2.360e+0
0.482, 3.832e-8, -9.467e-7, 2.380e+0
0.481, 4.250e-8, -9.458e-7, 2.400e+0
0.480, 4.885e-8, -9.449e-7, 2.420e+0
0.479, 5.265e-8, -9.438e-7, 2.440e+0
0.478, 5.526e-8, -9.427e-7, 2.460e+0
0.477, 5.996e-8, -9.415e-7, 2.480e+0
0.476, 6.386e-8, -9.402e-7, 2.500e+0
0.475, 6.758e-8, -9.389e-7, 2.520e+0
0.474, 7.218e-8, -9.374e-7, 2.540e+0
0.473, 7.634e-8, -9.359e-7, 2.560e+0
0.472, 7.961e-8, -9.343e-7, 2.580e+0
0.471, 8.354e-8, -9.326e-7, 2.600e+0
0.470, 8.602e-8, -9.309e-7, 2.620e+0
0.469, 9.101e-8, -9.291e-7, 2.640e+0
0.468, 9.462e-8, -9.272e-7, 2.660e+0
0.467, 9.886e-8, -9.252e-7, 2.680e+0
0.466, 1.025e-7, -9.232e-7, 2.700e+0
0.465, 1.056e-7, -9.211e-7, 2.720e+0
0.464, 1.092e-7, -9.189e-7, 2.740e+0
0.463, 1.133e-7, -9.166e-7, 2.760e+0
0.462, 1.157e-7, -9.143e-7, 2.780e+0
0.461, 1.194e-7, -9.119e-7, 2.800e+0
0.460, 1.224e-7, -9.095e-7, 2.820e+0
0.459, 1.259e-7, -9.070e-7, 2.840e+0
0.458, 1.300e-7, -9.044e-7, 2.860e+0
0.457, 1.335e-7, -9.017e-7, 2.880e+0
0.456, 1.373e-7, -8.989e-7, 2.900e+0
0.455, 1.418e-7, -8.961e-7, 2.920e+0
0.454, 1.446e-7, -8.932e-7, 2.940e+0
0.453, 1.472e-7, -8.903e-7, 2.960e+0
0.452, 1.509e-7, -8.873e-7, 2.980e+0
0.451, 1.535e-7, -8.842e-7, 3.000e+0
0.450, 1.584e-7, -8.810e-7, 3.020e+0
0.449, 1.598e-7, -8.778e-7, 3.040e+0
0.448, 1.651e-7, -8.745e-7, 3.060e+0
0.447, 1.685e-7, -8.711e-7, 3.080e+0
0.446, 1.705e-7, -8.677e-7, 3.100e+0
0.445, 1.744e-7, -8.642e-7, 3.120e+0
0.444, 1.771e-7, -8.607e-7, 3.140e+0
0.443, 1.795e-7, -8.571e-7, 3.160e+0
0.442, 1.845e-7, -8.534e-7, 3.180e+0
0.441, 1.878e-7, -8.497e-7, 3.200e+0
0.440, 1.889e-7, -8.459e-7, 3.220e+0
0.439, 1.928e-7, -8.420e-7, 3.240e+0
0.438, 1.956e-7, -8.381e-7, 3.260e+0
0.437, 1.989e-7, -8.341e-7, 3.280e+0
0.436, 2.009e-7, -8.301e-7, 3.300e+0
0.435, 2.037e-7, -8.261e-7, 3.320e+0
0.434, 2.074e-7, -8.219e-7, 3.340e+0
0.433, 2.113e-7, -8.177e-7, 3.360e+0
0.432, 2.141e-7, -8.134e-7, 3.380e+0
0.431, 2.180e-7, -8.090e-7, 3.400e+0
0.430, 2.205e-7, -8.046e-7, 3.420e+0
0.429, 2.231e-7, -8.002e-7, 3.440e+0
0.428, 2.258e-7, -7.956e-7, 3.460e+0
0.427, 2.281e-7, -7.911e-7, 3.480e+0
0.426, 2.318e-7, -7.864e-7, 3.500e+0
0.425, 2.349e-7, -7.818e-7, 3.520e+0
0.424, 2.385e-7, -7.770e-7, 3.540e+0
0.423, 2.406e-7, -7.722e-7, 3.560e+0
0.422, 2.434e-7, -7.673e-7, 3.580e+0
0.421, 2.467e-7, -7.624e-7, 3.600e+0
0.420, 2.493e-7, -7.574e-7, 3.620e+0
0.419, 2.522e-7, -7.523e-7, 3.640e+0
0.418, 2.547e-7, -7.472e-7, 3.660e+0
0.417, 2.578e-7, -7.421e-7, 3.680e+0
0.416, 2.609e-7, -7.369e-7, 3.700e+0
0.415, 2.649e-7, -7.316e-7, 3.720e+0
0.414, 2.671e-7, -7.262e-7, 3.740e+0
0.413, 2.700e-7, -7.208e-7, 3.760e+0
0.412, 2.725e-7, -7.154e-7, 3.780e+0
0.411, 2.756e-7, -7.099e-7, 3.800e+0
0.410, 2.749e-7, -7.044e-7, 3.820e+0
0.409, 2.733e-7, -6.989e-7, 3.840e+0
0.408, 2.818e-7, -6.933e-7, 3.860e+0
0.407, 2.857e-7, -6.876e-7, 3.880e+0
0.406, 2.885e-7, -6.818e-7, 3.900e+0
0.405, 2.918e-7, -6.759e-7, 3.920e+0
0.404, 2.954e-7, -6.700e-7, 3.940e+0
0.403, 2.983e-7, -6.641e-7, 3.960e+0
0.402, 3.008e-7, -6.581e-7, 3.980e+0
0.401, 3.037e-7, -6.520e-7, 4.000e+0
0.400, 3.071e-7, -6.458e-7, 4.020e+0
0.399, 3.110e-7, -6.396e-7, 4.040e+0
0.398, 3.135e-7, -6.334e-7, 4.060e+0
0.397, 3.169e-7, -6.270e-7, 4.080e+0
0.396, 3.202e-7, -6.206e-7, 4.100e+0
0.395, 3.220e-7, -6.142e-7, 4.120e+0
0.394, 3.253e-7, -6.077e-7, 4.140e+0
0.393, 3.285e-7, -6.011e-7, 4.160e+0
0.392, 3.317e-7, -5.945e-7, 4.180e+0
0.391, 3.347e-7, -5.878e-7, 4.200e+0
0.390, 3.367e-7, -5.810e-7, 4.220e+0
0.389, 3.409e-7, -5.742e-7, 4.240e+0
0.388, 3.432e-7, -5.674e-7, 4.260e+0
0.387, 3.465e-7, -5.604e-7, 4.280e+0
0.386, 3.502e-7, -5.534e-7, 4.300e+0
0.385, 3.529e-7, -5.464e-7, 4.320e+0
0.384, 3.558e-7, -5.392e-7, 4.340e+0
0.383, 3.592e-7, -5.321e-7, 4.360e+0
0.382, 3.627e-7, -5.248e-7, 4.380e+0
0.381, 3.667e-7, -5.175e-7, 4.400e+0
0.380, 3.694e-7, -5.101e-7, 4.420e+0
0.379, 3.730e-7, -5.026e-7, 4.440e+0
0.378, 3.764e-7, -4.951e-7, 4.460e+0
0.377, 3.803e-7, -4.875e-7, 4.480e+0
0.376, 3.827e-7, -4.798e-7, 4.500e+0
0.375, 3.873e-7, -4.721e-7, 4.520e+0
0.374, 3.895e-7, -4.643e-7, 4.540e+0
0.373, 3.939e-7, -4.564e-7, 4.560e+0
0.372, 3.974e-7, -4.485e-7, 4.580e+0
0.371, 4.003e-7, -4.405e-7, 4.600e+0
0.370, 4.046e-7, -4.324e-7, 4.620e+0
0.369, 4.090e-7, -4.242e-7, 4.640e+0
0.368, 4.126e-7, -4.159e-7, 4.660e+0
0.367, 4.169e-7, -4.076e-7, 4.680e+0
0.366, 4.207e-7, -3.992e-7, 4.700e+0
0.365, 4.246e-7, -3.907e-7, 4.720e+0
0.364, 4.286e-7, -3.821e-7, 4.740e+0
0.363, 4.310e-7, -3.735e-7, 4.760e+0
0.362, 4.364e-7, -3.648e-7, 4.780e+0
0.361, 4.419e-7, -3.559e-7, 4.800e+0
0.360, 4.452e-7, -3.470e-7, 4.820e+0
0.359, 4.499e-7, -3.380e-7, 4.840e+0
0.358, 4.513e-7, -3.290e-7, 4.860e+0
0.357, 4.583e-7, -3.198e-7, 4.880e+0
0.356, 4.634e-7, -3.106e-7, 4.900e+0
0.355, 4.682e-7, -3.012e-7, 4.920e+0
0.354, 4.740e-7, -2.917e-7, 4.940e+0
0.353, 4.784e-7, -2.822e-7, 4.960e+0
0.352, 4.838e-7, -2.725e-7, 4.980e+0
0.351, 4.891e-7, -2.627e-7, 5.000e+0
0.350, 4.940e-7, -2.528e-7, 5.020e+0
0.349, 5.003e-7, -2.428e-7, 5.040e+0
0.348, 5.054e-7, -2.327e-7, 5.060e+0
0.347, 5.115e-7, -2.225e-7, 5.080e+0
0.346, 5.181e-7, -2.121e-7, 5.100e+0
0.345, 5.238e-7, -2.016e-7, 5.120e+0
0.344, 5.295e-7, -1.911e-7, 5.140e+0
0.343, 5.357e-7, -1.803e-7, 5.160e+0
0.342, 5.416e-7, -1.695e-7, 5.180e+0
0.341, 5.492e-7, -1.585e-7, 5.200e+0
0.340, 5.552e-7, -1.474e-7, 5.220e+0
0.339, 5.628e-7, -1.362e-7, 5.240e+0
0.338, 5.698e-7, -1.248e-7, 5.260e+0
0.337, 5.771e-7, -1.132e-7, 5.280e+0
0.336, 5.841e-7, -1.015e-7, 5.300e+0
0.335, 5.935e-7, -8.968e-8, 5.320e+0
0.334, 5.996e-7, -7.769e-8, 5.340e+0
0.333, 6.080e-7, -6.553e-8, 5.360e+0
0.332, 6.173e-7, -5.318e-8, 5.380e+0
0.331, 6.246e-7, -4.069e-8, 5.400e+0
0.330, 6.345e-7, -2.800e-8, 5.420e+0
0.329, 6.436e-7, -1.512e-8, 5.440e+0
0.328, 6.527e-7, -2.070e-9, 5.460e+0
0.327, 6.619e-7, 1.117e-8, 5.480e+0
0.326, 6.724e-7, 2.462e-8, 5.500e+0
0.325, 6.830e-7, 3.828e-8, 5.520e+0
0.324, 6.930e-7, 5.214e-8, 5.540e+0
0.323, 7.044e-7, 6.622e-8, 5.560e+0
0.322, 7.155e-7, 8.053e-8, 5.580e+0
0.321, 7.269e-7, 9.507e-8, 5.600e+0
0.320, 7.388e-7, 1.098e-7, 5.620e+0
0.319, 7.520e-7, 1.249e-7, 5.640e+0
0.318, 7.633e-7, 1.402e-7, 5.660e+0
0.317, 7.752e-7, 1.557e-7, 5.680e+0
0.316, 7.912e-7, 1.715e-7, 5.700e+0
0.315, 8.039e-7, 1.876e-7, 5.720e+0
0.314, 8.185e-7, 2.039e-7, 5.740e+0
0.313, 8.334e-7, 2.206e-7, 5.760e+0
0.312, 8.482e-7, 2.376e-7, 5.780e+0
0.311, 8.625e-7, 2.548e-7, 5.800e+0
0.310, 8.793e-7, 2.724e-7, 5.820e+0
0.309, 8.957e-7, 2.903e-7, 5.840e+0
0.308, 9.137e-7, 3.086e-7, 5.860e+0
0.307, 9.307e-7, 3.272e-7, 5.880e+0
0.306, 9.499e-7, 3.462e-7, 5.900e+0
0.305, 9.674e-7, 3.655e-7, 5.920e+0
0.304, 9.867e-7, 3.853e-7, 5.940e+0
0.303, 1.008e-6, 4.054e-7, 5.960e+0
0.302, 1.027e-6, 4.260e-7, 5.980e+0
0.301, 1.050e-6, 4.470e-7, 6.000e+0
0.300, 1.071e-6, 4.684e-7, 6.020e+0
0.299, 1.093e-6, 4.903e-7, 6.040e+0
0.298, 1.116e-6, 5.126e-7, 6.060e+0
0.297, 1.140e-6, 5.354e-7, 6.080e+0
0.296, 1.166e-6, 5.587e-7, 6.100e+0
0.295, 1.193e-6, 5.826e-7, 6.120e+0
0.294, 1.218e-6, 6.069e-7, 6.140e+0
0.293, 1.246e-6, 6.318e-7, 6.160e+0
0.292, 1.273e-6, 6.573e-7, 6.180e+0
0.291, 1.302e-6, 6.833e-7, 6.200e+0
0.290, 1.332e-6, 7.100e-7, 6.220e+0
0.289, 1.361e-6, 7.372e-7, 6.240e+0
0.288, 1.394e-6, 7.651e-7, 6.260e+0
0.287, 1.428e-6, 7.936e-7, 6.280e+0
0.286, 1.459e-6, 8.228e-7, 6.300e+0
0.285, 1.494e-6, 8.527e-7, 6.320e+0
0.284, 1.531e-6, 8.833e-7, 6.340e+0
0.283, 1.566e-6, 9.146e-7, 6.360e+0
0.282, 1.604e-6, 9.467e-7, 6.380e+0
0.281, 1.641e-6, 9.795e-7, 6.400e+0
0.280, 1.681e-6, 1.013e-6, 6.420e+0
0.279, 1.723e-6, 1.048e-6, 6.440e+0
0.278, 1.764e-6, 1.083e-6, 6.460e+0
0.277, 1.810e-6, 1.119e-6, 6.480e+0
0.276, 1.854e-6, 1.156e-6, 6.500e+0
0.275, 1.900e-6, 1.194e-6, 6.520e+0
0.274, 1.946e-6, 1.233e-6, 6.540e+0
0.273, 1.993e-6, 1.273e-6, 6.560e+0
0.272, 2.044e-6, 1.314e-6, 6.580e+0
0.271, 2.095e-6, 1.356e-6, 6.600e+0
0.270, 2.145e-6, 1.399e-6, 6.620e+0
0.269, 2.200e-6, 1.443e-6, 6.640e+0
0.268, 2.255e-6, 1.488e-6, 6.660e+0
0.267, 2.311e-6, 1.534e-6, 6.680e+0
0.266, 2.369e-6, 1.581e-6, 6.700e+0
0.265, 2.426e-6, 1.630e-6, 6.720e+0
0.264, 2.486e-6, 1.680e-6, 6.740e+0
0.263, 2.546e-6, 1.731e-6, 6.760e+0
0.262, 2.609e-6, 1.783e-6, 6.780e+0
0.261, 2.674e-6, 1.836e-6, 6.800e+0
0.260, 2.738e-6, 1.891e-6, 6.820e+0
0.259, 2.804e-6, 1.947e-6, 6.840e+0
0.258, 2.874e-6, 2.005e-6, 6.860e+0
0.257, 2.942e-6, 2.063e-6, 6.880e+0
0.256, 3.006e-6, 2.123e-6, 6.900e+0
0.255, 3.077e-6, 2.185e-6, 6.920e+0
0.254, 3.152e-6, 2.248e-6, 6.940e+0
0.253, 3.227e-6, 2.313e-6, 6.960e+0
0.252, 3.304e-6, 2.379e-6, 6.980e+0
0.251, 3.377e-6, 2.446e-6, 7.000e+0
0.250, 3.458e-6, 2.515e-6, 7.020e+0
0.249, 3.538e-6, 2.586e-6, 7.040e+0
0.248, 3.613e-6, 2.658e-6, 7.060e+0
0.247, 3.694e-6, 2.732e-6, 7.080e+0
0.246, 3.778e-6, 2.808e-6, 7.100e+0
0.245, 3.858e-6, 2.885e-6, 7.120e+0
0.244, 3.942e-6, 2.964e-6, 7.140e+0
0.243, 4.027e-6, 3.044e-6, 7.160e+0
0.242, 4.112e-6, 3.127e-6, 7.180e+0
0.241, 4.194e-6, 3.210e-6, 7.200e+0
0.240, 4.281e-6, 3.296e-6, 7.220e+0
0.239, 4.367e-6, 3.383e-6, 7.240e+0
0.238, 4.450e-6, 3.472e-6, 7.260e+0
0.237, 4.538e-6, 3.563e-6, 7.280e+0
0.236, 4.623e-6, 3.656e-6, 7.300e+0
0.235, 4.711e-6, 3.750e-6, 7.320e+0
0.234, 4.797e-6, 3.846e-6, 7.340e+0
0.233, 4.880e-6, 3.943e-6, 7.360e+0
0.232, 4.967e-6, 4.043e-6, 7.380e+0
0.231, 5.051e-6, 4.144e-6, 7.400e+0
0.230, 5.133e-6, 4.246e-6, 7.420e+0
0.229, 5.220e-6, 4.351e-6, 7.440e+0
0.228, 5.304e-6, 4.457e-6, 7.460e+0
0.227, 5.388e-6, 4.565e-6, 7.480e+0
0.226, 5.472e-6, 4.674e-6, 7.500e+0
0.225, 5.556e-6, 4.785e-6, 7.520e+0
0.224, 5.636e-6, 4.898e-6, 7.540e+0
0.223, 5.714e-6, 5.012e-6, 7.560e+0
0.222, 5.790e-6, 5.128e-6, 7.580e+0
0.221, 5.868e-6, 5.245e-6, 7.600e+0
0.220, 5.944e-6, 5.364e-6, 7.620e+0
0.219, 6.015e-6, 5.485e-6, 7.640e+0
0.218, 6.087e-6, 5.606e-6, 7.660e+0
0.217, 6.160e-6, 5.730e-6, 7.680e+0
0.216, 6.225e-6, 5.854e-6, 7.700e+0
0.215, 6.294e-6, 5.980e-6, 7.720e+0
0.214, 6.363e-6, 6.107e-6, 7.740e+0
0.213, 6.425e-6, 6.236e-6, 7.760e+0
0.212, 6.489e-6, 6.365e-6, 7.780e+0
0.211, 6.548e-6, 6.496e-6, 7.800e+0
0.210, 6.605e-6, 6.629e-6, 7.820e+0
0.209, 6.660e-6, 6.762e-6, 7.840e+0
0.208, 6.708e-6, 6.896e-6, 7.860e+0
0.207, 6.760e-6, 7.031e-6, 7.880e+0
0.206, 6.811e-6, 7.167e-6, 7.900e+0
0.205, 6.865e-6, 7.305e-6, 7.920e+0
0.204, 6.919e-6, 7.443e-6, 7.940e+0
0.203, 6.951e-6, 7.582e-6, 7.960e+0
0.202, 6.987e-6, 7.722e-6, 7.980e+0
0.201, 7.024e-6, 7.862e-6, 8.000e+0
0.200, 7.058e-6, 8.003e-6, 8.020e+0
0.199, 7.092e-6, 8.145e-6, 8.040e+0
0.198, 7.121e-6, 8.288e-6, 8.060e+0
0.197, 7.148e-6, 8.431e-6, 8.080e+0
0.196, 7.173e-6, 8.574e-6, 8.100e+0
0.195, 7.192e-6, 8.718e-6, 8.120e+0
0.194, 7.213e-6, 8.862e-6, 8.140e+0
0.193, 7.234e-6, 9.007e-6, 8.160e+0
0.192, 7.252e-6, 9.152e-6, 8.180e+0
0.191, 7.269e-6, 9.297e-6, 8.200e+0
0.190, 7.280e-6, 9.443e-6, 8.220e+0
0.189, 7.289e-6, 9.589e-6, 8.240e+0
0.188, 7.300e-6, 9.735e-6, 8.260e+0
0.187, 7.304e-6, 9.881e-6, 8.280e+0
0.186, 7.311e-6, 1.003e-5, 8.300e+0
0.185, 7.316e-6, 1.017e-5, 8.320e+0
0.184, 7.316e-6, 1.032e-5, 8.340e+0
0.183, 7.318e-6, 1.047e-5, 8.360e+0
0.182, 7.315e-6, 1.061e-5, 8.380e+0
0.181, 7.312e-6, 1.076e-5, 8.400e+0
0.180, 7.307e-6, 1.090e-5, 8.420e+0
0.179, 7.299e-6, 1.105e-5, 8.440e+0
0.178, 7.294e-6, 1.120e-5, 8.460e+0
0.177, 7.287e-6, 1.134e-5, 8.480e+0
0.176, 7.279e-6, 1.149e-5, 8.500e+0
0.175, 7.268e-6, 1.163e-5, 8.520e+0
0.174, 7.255e-6, 1.178e-5, 8.540e+0
0.173, 7.243e-6, 1.192e-5, 8.560e+0
0.172, 7.232e-6, 1.207e-5, 8.580e+0
0.171, 7.216e-6, 1.221e-5, 8.600e+0
0.170, 7.205e-6, 1.236e-5, 8.620e+0
0.169, 7.186e-6, 1.250e-5, 8.640e+0
0.168, 7.168e-6, 1.264e-5, 8.660e+0
0.167, 7.152e-6, 1.279e-5, 8.680e+0
0.166, 7.134e-6, 1.293e-5, 8.700e+0
0.165, 7.115e-6, 1.307e-5, 8.720e+0
0.164, 7.095e-6, 1.321e-5, 8.740e+0
0.163, 7.076e-6, 1.335e-5, 8.760e+0
0.162, 7.056e-6, 1.350e-5, 8.780e+0
0.161, 7.035e-6, 1.364e-5, 8.800e+0
0.160, 7.017e-6, 1.378e-5, 8.820e+0
0.159, 6.996e-6, 1.392e-5, 8.840e+0
0.158, 6.971e-6, 1.406e-5, 8.860e+0
0.157, 6.949e-6, 1.420e-5, 8.880e+0
0.156, 6.927e-6, 1.433e-5, 8.900e+0
0.155, 6.903e-6, 1.447e-5, 8.920e+0
0.154, 6.881e-6, 1.461e-5, 8.940e+0
0.153, 6.855e-6, 1.475e-5, 8.960e+0
0.152, 6.835e-6, 1.488e-5, 8.980e+0
0.151, 6.814e-6, 1.502e-5, 9.000e+0
0.150, 6.791e-6, 1.516e-5, 9.020e+0
0.149, 6.769e-6, 1.529e-5, 9.040e+0
0.148, 6.746e-6, 1.543e-5, 9.060e+0
0.147, 6.724e-6, 1.556e-5, 9.080e+0
0.146, 6.702e-6, 1.569e-5, 9.100e+0
0.145, 6.678e-6, 1.583e-5, 9.120e+0
0.144, 6.658e-6, 1.596e-5, 9.140e+0
0.143, 6.638e-6, 1.609e-5, 9.160e+0
0.142, 6.613e-6, 1.623e-5, 9.180e+0
0.141, 6.592e-6, 1.636e-5, 9.200e+0
0.140, 6.570e-6, 1.649e-5, 9.220e+0
0.139, 6.550e-6, 1.662e-5, 9.240e+0
0.138, 6.530e-6, 1.675e-5, 9.260e+0
0.137, 6.509e-6, 1.688e-5, 9.280e+0
0.136, 6.487e-6, 1.701e-5, 9.300e+0
0.135, 6.467e-6, 1.714e-5, 9.320e+0
0.134, 6.447e-6, 1.727e-5, 9.340e+0
0.133, 6.428e-6, 1.740e-5, 9.360e+0
0.132, 6.409e-6, 1.753e-5, 9.380e+0
0.131, 6.390e-6, 1.765e-5, 9.400e+0
0.130, 6.370e-6, 1.778e-5, 9.420e+0
0.129, 6.352e-6, 1.791e-5, 9.440e+0
0.128, 6.333e-6, 1.803e-5, 9.460e+0
0.127, 6.315e-6, 1.816e-5, 9.480e+0
0.126, 6.300e-6, 1.829e-5, 9.500e+0
0.125, 6.281e-6, 1.841e-5, 9.520e+0
0.124, 6.266e-6, 1.854e-5, 9.540e+0
0.123, 6.249e-6, 1.866e-5, 9.560e+0
0.122, 6.233e-6, 1.879e-5, 9.580e+0
0.121, 6.218e-6, 1.891e-5, 9.600e+0
0.120, 6.203e-6, 1.904e-5, 9.620e+0
0.119, 6.187e-6, 1.916e-5, 9.640e+0
0.118, 6.173e-6, 1.928e-5, 9.660e+0
0.117, 6.160e-6, 1.941e-5, 9.680e+0
0.116, 6.147e-6, 1.953e-5, 9.700e+0
0.115, 6.132e-6, 1.965e-5, 9.720e+0
0.114, 6.119e-6, 1.977e-5, 9.740e+0
0.113, 6.106e-6, 1.990e-5, 9.760e+0
0.112, 6.095e-6, 2.002e-5, 9.780e+0
0.111, 6.084e-6, 2.014e-5, 9.800e+0
0.110, 6.071e-6, 2.026e-5, 9.820e+0
0.109, 6.061e-6, 2.038e-5, 9.840e+0
0.108, 6.051e-6, 2.050e-5, 9.860e+0
0.107, 6.041e-6, 2.062e-5, 9.880e+0
0.106, 6.032e-6, 2.075e-5, 9.900e+0
0.105, 6.020e-6, 2.087e-5, 9.920e+0
0.104, 6.012e-6, 2.099e-5, 9.940e+0
0.103, 6.005e-6, 2.111e-5, 9.960e+0
0.102, 5.997e-6, 2.123e-5, 9.980e+0
0.101, 5.989e-6, 2.135e-5, 1.000e+1
0.100, 5.982e-6, 2.147e-5, 1.002e+1
0.099, 5.975e-6, 2.158e-5, 1.004e+1
0.098, 5.968e-6, 2.170e-5, 1.006e+1
0.097, 5.961e-6, 2.182e-5, 1.008e+1
0.096, 5.955e-6, 2.194e-5, 1.010e+1
0.095, 5.950e-6, 2.206e-5, 1.012e+1
0.094, 5.945e-6, 2.218e-5, 1.014e+1
0.093, 5.941e-6, 2.230e-5, 1.016e+1
0.092, 5.936e-6, 2.242e-5, 1.018e+1
0.091, 5.933e-6, 2.254e-5, 1.020e+1
0.090, 5.931e-6, 2.266e-5, 1.022e+1
0.089, 5.927e-6, 2.277e-5, 1.024e+1
0.088, 5.924e-6, 2.289e-5, 1.026e+1
0.087, 5.922e-6, 2.301e-5, 1.028e+1
0.086, 5.919e-6, 2.313e-5, 1.030e+1
0.085, 5.918e-6, 2.325e-5, 1.032e+1
0.084, 5.918e-6, 2.337e-5, 1.034e+1
0.083, 5.917e-6, 2.348e-5, 1.036e+1
0.082, 5.917e-6, 2.360e-5, 1.038e+1
0.081, 5.916e-6, 2.372e-5, 1.040e+1
0.080, 5.918e-6, 2.384e-5, 1.042e+1
0.079, 5.920e-6, 2.396e-5, 1.044e+1
0.078, 5.919e-6, 2.408e-5, 1.046e+1
0.077, 5.921e-6, 2.419e-5, 1.048e+1
0.076, 5.923e-6, 2.431e-5, 1.050e+1
0.075, 5.925e-6, 2.443e-5, 1.052e+1
0.074, 5.929e-6, 2.455e-5, 1.054e+1
0.073, 5.932e-6, 2.467e-5, 1.056e+1
0.072, 5.935e-6, 2.479e-5, 1.058e+1
0.071, 5.939e-6, 2.491e-5, 1.060e+1
0.070, 5.944e-6, 2.502e-5, 1.062e+1
0.069, 5.949e-6, 2.514e-5, 1.064e+1
0.068, 5.954e-6, 2.526e-5, 1.066e+1
0.067, 5.958e-6, 2.538e-5, 1.068e+1
0.066, 5.966e-6, 2.550e-5, 1.070e+1
0.065, 5.973e-6, 2.562e-5, 1.072e+1
0.064, 5.980e-6, 2.574e-5, 1.074e+1
0.063, 5.986e-6, 2.586e-5, 1.076e+1
0.062, 5.993e-6, 2.598e-5, 1.078e+1
0.061, 6.003e-6, 2.610e-5, 1.080e+1
0.060, 6.010e-6, 2.622e-5, 1.082e+1
0.059, 6.020e-6, 2.634e-5, 1.084e+1
0.058, 6.028e-6, 2.646e-5, 1.086e+1
0.057, 6.038e-6, 2.658e-5, 1.088e+1
0.056, 6.047e-6, 2.670e-5, 1.090e+1
0.055, 6.058e-6, 2.682e-5, 1.092e+1
0.054, 6.069e-6, 2.695e-5, 1.094e+1
0.053, 6.080e-6, 2.707e-5, 1.096e+1
0.052, 6.092e-6, 2.719e-5, 1.098e+1
0.051, 6.100e-6, 2.731e-5, 1.100e+1
0.050, 6.114e-6, 2.743e-5, 1.102e+1
0.049, 6.127e-6, 2.756e-5, 1.104e+1
0.048, 6.141e-6, 2.768e-5, 1.106e+1
0.047, 6.155e-6, 2.780e-5, 1.108e+1
0.046, 6.169e-6, 2.792e-5, 1.110e+1
0.045, 6.185e-6, 2.805e-5, 1.112e+1
0.044, 6.201e-6, 2.817e-5, 1.114e+1
0.043, 6.215e-6, 2.830e-5, 1.116e+1
0.042, 6.231e-6, 2.842e-5, 1.118e+1
0.041, 6.247e-6, 2.855e-5, 1.120e+1
0.040, 6.264e-6, 2.867e-5, 1.122e+1
0.039, 6.282e-6, 2.880e-5, 1.124e+1
0.038, 6.298e-6, 2.892e-5, 1.126e+1
0.037, 6.316e-6, 2.905e-5, 1.128e+1
0.036, 6.335e-6, 2.918e-5, 1.130e+1
0.035, 6.353e-6, 2.930e-5, 1.132e+1
0.034, 6.374e-6, 2.943e-5, 1.134e+1
0.033, 6.392e-6, 2.956e-5, 1.136e+1
0.032, 6.413e-6, 2.969e-5, 1.138e+1
0.031, 6.433e-6, 2.982e-5, 1.140e+1
0.030, 6.454e-6, 2.994e-5, 1.142e+1
0.029, 6.476e-6, 3.007e-5, 1.144e+1
0.028, 6.498e-6, 3.020e-5, 1.146e+1
0.027, 6.520e-6, 3.033e-5, 1.148e+1
0.026, 6.543e-6, 3.047e-5, 1.150e+1
0.025, 6.566e-6, 3.060e-5, 1.152e+1
0.024, 6.592e-6, 3.073e-5, 1.154e+1
0.023, 6.616e-6, 3.086e-5, 1.156e+1
0.022, 6.641e-6, 3.099e-5, 1.158e+1
0.021, 6.667e-6, 3.113e-5, 1.160e+1
0.020, 6.692e-6, 3.126e-5, 1.162e+1
0.019, 6.720e-6, 3.140e-5, 1.164e+1
0.018, 6.747e-6, 3.153e-5, 1.166e+1
0.017, 6.774e-6, 3.167e-5, 1.168e+1
0.016, 6.802e-6, 3.180e-5, 1.170e+1
0.015, 6.831e-6, 3.194e-5, 1.172e+1
0.014, 6.859e-6, 3.208e-5, 1.174e+1
0.013, 6.888e-6, 3.221e-5, 1.176e+1
0.012, 6.920e-6, 3.235e-5, 1.178e+1
0.011, 6.949e-6, 3.249e-5, 1.180e+1
0.010, 6.981e-6, 3.263e-5, 1.182e+1
0.009, 7.011e-6, 3.277e-5, 1.184e+1
0.008, 7.044e-6, 3.291e-5, 1.186e+1
0.007, 7.078e-6, 3.305e-5, 1.188e+1
0.006, 7.112e-6, 3.320e-5, 1.190e+1
0.005, 7.145e-6, 3.334e-5, 1.192e+1
0.004, 7.180e-6, 3.348e-5, 1.194e+1
0.003, 7.215e-6, 3.363e-5, 1.196e+1
0.002, 7.250e-6, 3.377e-5, 1.198e+1
0.001, 7.286e-6, 3.392e-5, 1.200e+1

Segment 2:
0.000, 7.232e-6, 3.406e-5, 1.202e+1
0.001, 6.939e-6, 3.420e-5, 1.204e+1
0.002, 6.767e-6, 3.434e-5, 1.206e+1
0.003, 6.642e-6, 3.447e-5, 1.208e+1
0.004, 6.530e-6, 3.460e-5, 1.210e+1
0.005, 6.426e-6, 3.473e-5, 1.212e+1
0.006, 6.327e-6, 3.485e-5, 1.214e+1
0.007, 6.232e-6, 3.498e-5, 1.216e+1
0.008, 6.143e-6, 3.510e-5, 1.218e+1
0.009, 6.057e-6, 3.522e-5, 1.220e+1
0.010, 5.973e-6, 3.534e-5, 1.222e+1
0.011, 5.893e-6, 3.546e-5, 1.224e+1
0.012, 5.817e-6, 3.558e-5, 1.226e+1
0.013, 5.741e-6, 3.569e-5, 1.228e+1
0.014, 5.668e-6, 3.580e-5, 1.230e+1
0.015, 5.600e-6, 3.592e-5, 1.232e+1
0.016, 5.531e-6, 3.603e-5, 1.234e+1
0.017, 5.463e-6, 3.614e-5, 1.236e+1
0.018, 5.400e-6, 3.624e-5, 1.238e+1
0.019, 5.336e-6, 3.635e-5, 1.240e+1
0.020, 5.274e-6, 3.646e-5, 1.242e+1
0.021, 5.215e-6, 3.656e-5, 1.244e+1
0.022, 5.156e-6, 3.666e-5, 1.246e+1
0.023, 5.101e-6, 3.677e-5, 1.248e+1
0.024, 5.045e-6, 3.687e-5, 1.250e+1
0.025, 4.991e-6, 3.697e-5, 1.252e+1
0.026, 4.940e-6, 3.707e-5, 1.254e+1
0.027, 4.886e-6, 3.716e-5, 1.256e+1
0.028, 4.836e-6, 3.726e-5, 1.258e+1
0.029, 4.787e-6, 3.736e-5, 1.260e+1
0.030, 4.737e-6, 3.745e-5, 1.262e+1
0.031, 4.690e-6, 3.754e-5, 1.264e+1
0.032, 4.643e-6, 3.764e-5, 1.266e+1
0.033, 4.597e-6, 3.773e-5, 1.268e+1
0.034, 4.554e-6, 3.782e-5, 1.270e+1
0.035, 4.509e-6, 3.791e-5, 1.272e+1
0.036, 4.468e-6, 3.800e-5, 1.274e+1
0.037, 4.426e-6, 3.809e-5, 1.276e+1
0.038, 4.384e-6, 3.818e-5, 1.278e+1
0.039, 4.342e-6, 3.826e-5, 1.280e+1
0.040, 4.304e-6, 3.835e-5, 1.282e+1
0.041, 4.265e-6, 3.843e-5, 1.284e+1
0.042, 4.227e-6, 3.852e-5, 1.286e+1
0.043, 4.189e-6, 3.860e-5, 1.288e+1
0.044, 4.151e-6, 3.869e-5, 1.290e+1
0.045, 4.115e-6, 3.877e-5, 1.292e+1
0.046, 4.079e-6, 3.885e-5, 1.294e+1
0.047, 4.044e-6, 3.893e-5, 1.296e+1
0.048, 4.010e-6, 3.901e-5, 1.298e+1
0.049, 3.976e-6, 3.909e-5, 1.300e+1
0.050, 3.943e-6, 3.917e-5, 1.302e+1
0.051, 3.912e-6, 3.925e-5, 1.304e+1
0.052, 3.878e-6, 3.932e-5, 1.306e+1
0.053, 3.847e-6, 3.940e-5, 1.308e+1
0.054, 3.815e-6, 3.948e-5, 1.310e+1
0.055, 3.784e-6, 3.955e-5, 1.312e+1
0.056, 3.753e-6, 3.963e-5, 1.314e+1
0.057, 3.723e-6, 3.970e-5, 1.316e+1
0.058, 3.693e-6, 3.978e-5, 1.318e+1
0.059, 3.665e-6, 3.985e-5, 1.320e+1
0.060, 3.636e-6, 3.992e-5, 1.322e+1
0.061, 3.607e-6, 4.000e-5, 1.324e+1
0.062, 3.578e-6, 4.007e-5, 1.326e+1
0.063, 3.551e-6, 4.014e-5, 1.328e+1
0.064, 3.524e-6, 4.021e-5, 1.330e+1
0.065, 3.497e-6, 4.028e-5, 1.332e+1
0.066, 3.472e-6, 4.035e-5, 1.334e+1
0.067, 3.445e-6, 4.042e-5, 1.336e+1
0.068, 3.419e-6, 4.048e-5, 1.338e+1
0.069, 3.394e-6, 4.055e-5, 1.340e+1
0.070, 3.367e-6, 4.062e-5, 1.342e+1
0.071, 3.343e-6, 4.069e-5, 1.344e+1
0.072, 3.317e-6, 4.075e-5, 1.346e+1
0.073, 3.292e-6, 4.082e-5, 1.348e+1
0.074, 3.269e-6, 4.088e-5, 1.350e+1
0.075, 3.245e-6, 4.095e-5, 1.352e+1
0.076, 3.220e-6, 4.101e-5, 1.354e+1
0.077, 3.199e-6, 4.108e-5, 1.356e+1
0.078, 3.174e-6, 4.114e-5, 1.358e+1
0.079, 3.151e-6, 4.120e-5, 1.360e+1
0.080, 3.127e-6, 4.127e-5, 1.362e+1
0.081, 3.104e-6, 4.133e-5, 1.364e+1
0.082, 3.082e-6, 4.139e-5, 1.366e+1
0.083, 3.058e-6, 4.145e-5, 1.368e+1
0.084, 3.036e-6, 4.151e-5, 1.370e+1
0.085, 3.015e-6, 4.157e-5, 1.372e+1
0.086, 2.992e-6, 4.163e-5, 1.374e+1
0.087, 2.970e-6, 4.169e-5, 1.376e+1
0.088, 2.947e-6, 4.175e-5, 1.378e+1
0.089, 2.927e-6, 4.181e-5, 1.380e+1
0.090, 2.904e-6, 4.187e-5, 1.382e+1
0.091, 2.883e-6, 4.193e-5, 1.384e+1
0.092, 2.861e-6, 4.198e-5, 1.386e+1
0.093, 2.840e-6, 4.204e-5, 1.388e+1
0.094, 2.818e-6, 4.210e-5, 1.390e+1
0.095, 2.797e-6, 4.215e-5, 1.392e+1
0.096, 2.776e-6, 4.221e-5, 1.394e+1
0.097, 2.754e-6, 4.226e-5, 1.396e+1
0.098, 2.733e-6, 4.232e-5, 1.398e+1
0.099, 2.711e-6, 4.237e-5, 1.400e+1
0.100, 2.690e-6, 4.242e-5, 1.402e+1
0.101, 2.669e-6, 4.248e-5, 1.404e+1
0.102, 2.647e-6, 4.253e-5, 1.406e+1
0.103, 2.626e-6, 4.258e-5, 1.408e+1
0.104, 2.606e-6, 4.264e-5, 1.410e+1
0.105, 2.582e-6, 4.269e-5, 1.412e+1
0.106, 2.561e-6, 4.274e-5, 1.414e+1
0.107, 2.541e-6, 4.279e-5, 1.416e+1
0.108, 2.519e-6, 4.284e-5, 1.418e+1
0.109, 2.497e-6, 4.289e-5, 1.420e+1
0.110, 2.474e-6, 4.294e-5, 1.422e+1
0.111, 2.453e-6, 4.299e-5, 1.424e+1
0.112, 2.431e-6, 4.304e-5, 1.426e+1
0.113, 2.408e-6, 4.308e-5, 1.428e+1
0.114, 2.385e-6, 4.313e-5, 1.430e+1
0.115, 2.361e-6, 4.318e-5, 1.432e+1
0.116, 2.338e-6, 4.323e-5, 1.434e+1
0.117, 2.317e-6, 4.327e-5, 1.436e+1
0.118, 2.293e-6, 4.332e-5, 1.438e+1
0.119, 2.270e-6, 4.336e-5, 1.440e+1
0.120, 2.245e-6, 4.341e-5, 1.442e+1
0.121, 2.220e-6, 4.345e-5, 1.444e+1
0.122, 2.196e-6, 4.350e-5, 1.446e+1
0.123, 2.172e-6, 4.354e-5, 1.448e+1
0.124, 2.147e-6, 4.358e-5, 1.450e+1
0.125, 2.123e-6, 4.363e-5, 1.452e+1
0.126, 2.097e-6, 4.367e-5, 1.454e+1
0.127, 2.071e-6, 4.371e-5, 1.456e+1
0.128, 2.045e-6, 4.375e-5, 1.458e+1
0.129, 2.016e-6, 4.379e-5, 1.460e+1
0.130, 1.990e-6, 4.383e-5, 1.462e+1
0.131, 1.962e-6, 4.387e-5, 1.464e+1
0.132, 1.934e-6, 4.391e-5, 1.466e+1
0.133, 1.905e-6, 4.395e-5, 1.468e+1
0.134, 1.875e-6, 4.398e-5, 1.470e+1
0.135, 1.844e-6, 4.402e-5, 1.472e+1
0.136, 1.814e-6, 4.406e-5, 1.474e+1
0.137, 1.783e-6, 4.409e-5, 1.476e+1
0.138, 1.753e-6, 4.413e-5, 1.478e+1
0.139, 1.720e-6, 4.416e-5, 1.480e+1
0.140, 1.688e-6, 4.420e-5, 1.482e+1
0.141, 1.653e-6, 4.423e-5, 1.484e+1
0.142, 1.620e-6, 4.426e-5, 1.486e+1
0.143, 1.587e-6, 4.429e-5, 1.488e+1
0.144, 1.550e-6, 4.432e-5, 1.490e+1
0.145, 1.513e-6, 4.435e-5, 1.492e+1
0.146, 1.476e-6, 4.438e-5, 1.494e+1
0.147, 1.438e-6, 4.441e-5, 1.496e+1
0.148, 1.400e-6, 4.444e-5, 1.498e+1
0.149, 1.361e-6, 4.447e-5, 1.500e+1
0.150, 1.320e-6, 4.449e-5, 1.502e+1
0.151, 1.279e-6, 4.452e-5, 1.504e+1
0.152, 1.237e-6, 4.455e-5, 1.506e+1
0.153, 1.193e-6, 4.457e-5, 1.508e+1
0.154, 1.155e-6, 4.459e-5, 1.510e+1
0.155, 1.108e-6, 4.461e-5, 1.512e+1
0.156, 1.060e-6, 4.464e-5, 1.514e+1
0.157, 1.012e-6, 4.466e-5, 1.516e+1
0.158, 9.647e-7, 4.467e-5, 1.518e+1
0.159, 9.165e-7, 4.469e-5, 1.520e+1
0.160, 8.646e-7, 4.471e-5, 1.522e+1
0.161, 8.100e-7, 4.473e-5, 1.524e+1
0.162, 7.583e-7, 4.474e-5, 1.526e+1
0.163, 7.049e-7, 4.476e-5, 1.528e+1
0.164, 6.486e-7, 4.477e-5, 1.530e+1
0.165, 5.924e-7, 4.478e-5, 1.532e+1
0.166, 5.355e-7, 4.479e-5, 1.534e+1
0.167, 4.760e-7, 4.480e-5, 1.536e+1
0.168, 4.184e-7, 4.481e-5, 1.538e+1
0.169, 3.583e-7, 4.482e-5, 1.540e+1
0.170, 2.947e-7, 4.482e-5, 1.542e+1
0.171, 2.297e-7, 4.483e-5, 1.544e+1
0.172, 1.654e-7, 4.483e-5, 1.546e+1
0.173, 9.967e-8, 4.483e-5, 1.548e+1
0.174, 3.098e-8, 4.483e-5, 1.550e+1
0.175, -3.597e-8, 4.483e-5, 1.552e+1
0.176, -1.062e-7, 4.483e-5, 1.554e+1
0.177, -1.782e-7, 4.483e-5, 1.556e+1
0.178, -2.489e-7, 4.482e-5, 1.558e+1
0.179, -3.217e-7, 4.482e-5, 1.560e+1
0.180, -3.958e-7, 4.481e-5, 1.562e+1
0.181, -4.728e-7, 4.480e-5, 1.564e+1
0.182, -5.535e-7, 4.479e-5, 1.566e+1
0.183, -6.298e-7, 4.477e-5, 1.568e+1
0.184, -7.107e-7, 4.476e-5, 1.570e+1
0.185, -7.909e-7, 4.474e-5, 1.572e+1
0.186, -8.746e-7, 4.473e-5, 1.574e+1
0.187, -9.548e-7, 4.471e-5, 1.576e+1
0.188, -1.039e-6, 4.469e-5, 1.578e+1
0.189, -1.129e-6, 4.466e-5, 1.580e+1
0.190, -1.211e-6, 4.464e-5, 1.582e+1
0.191, -1.298e-6, 4.461e-5, 1.584e+1
0.192, -1.384e-6, 4.459e-5, 1.586e+1
0.193, -1.474e-6, 4.456e-5, 1.588e+1
0.194, -1.561e-6, 4.453e-5, 1.590e+1
0.195, -1.653e-6, 4.449e-5, 1.592e+1
0.196, -1.737e-6, 4.446e-5, 1.594e+1
0.197, -1.825e-6, 4.442e-5, 1.596e+1
0.198, -1.918e-6, 4.438e-5, 1.598e+1
0.199, -2.012e-6, 4.434e-5, 1.600e+1
0.200, -2.102e-6, 4.430e-5, 1.602e+1
0.201, -2.198e-6, 4.426e-5, 1.604e+1
0.202, -2.282e-6, 4.421e-5, 1.606e+1
0.203, -2.374e-6, 4.416e-5, 1.608e+1
0.204, -2.468e-6, 4.411e-5, 1.610e+1
0.205, -2.571e-6, 4.406e-5, 1.612e+1
0.206, -2.661e-6, 4.401e-5, 1.614e+1
0.207, -2.743e-6, 4.395e-5, 1.616e+1
0.208, -2.830e-6, 4.390e-5, 1.618e+1
0.209, -2.915e-6, 4.384e-5, 1.620e+1
0.210, -3.003e-6, 4.378e-5, 1.622e+1
0.211, -3.091e-6, 4.372e-5, 1.624e+1
0.212, -3.175e-6, 4.365e-5, 1.626e+1
0.213, -3.257e-6, 4.359e-5, 1.628e+1
0.214, -3.341e-6, 4.352e-5, 1.630e+1
0.215, -3.421e-6, 4.345e-5, 1.632e+1
0.216, -3.499e-6, 4.338e-5, 1.634e+1
0.217, -3.576e-6, 4.331e-5, 1.636e+1
0.218, -3.656e-6, 4.324e-5, 1.638e+1
0.219, -3.730e-6, 4.316e-5, 1.640e+1
0.220, -3.799e-6, 4.309e-5, 1.642e+1
0.221, -3.871e-6, 4.301e-5, 1.644e+1
0.222, -3.941e-6, 4.293e-5, 1.646e+1
0.223, -4.008e-6, 4.285e-5, 1.648e+1
0.224, -4.072e-6, 4.277e-5, 1.650e+1
0.225, -4.136e-6, 4.269e-5, 1.652e+1
0.226, -4.195e-6, 4.260e-5, 1.654e+1
0.227, -4.252e-6, 4.252e-5, 1.656e+1
0.228, -4.309e-6, 4.243e-5, 1.658e+1
0.229, -4.359e-6, 4.235e-5, 1.660e+1
0.230, -4.412e-6, 4.226e-5, 1.662e+1
0.231, -4.459e-6, 4.217e-5, 1.664e+1
0.232, -4.508e-6, 4.208e-5, 1.666e+1
0.233, -4.553e-6, 4.199e-5, 1.668e+1
0.234, -4.594e-6, 4.190e-5, 1.670e+1
0.235, -4.635e-6, 4.180e-5, 1.672e+1
0.236, -4.672e-6, 4.171e-5, 1.674e+1
0.237, -4.704e-6, 4.162e-5, 1.676e+1
0.238, -4.736e-6, 4.152e-5, 1.678e+1
0.239, -4.766e-6, 4.143e-5, 1.680e+1
0.240, -4.791e-6, 4.133e-5, 1.682e+1
0.241, -4.816e-6, 4.123e-5, 1.684e+1
0.242, -4.839e-6, 4.114e-5, 1.686e+1
0.243, -4.862e-6, 4.104e-5, 1.688e+1
0.244, -4.878e-6, 4.094e-5, 1.690e+1
0.245, -4.892e-6, 4.084e-5, 1.692e+1
0.246, -4.904e-6, 4.075e-5, 1.694e+1
0.247, -4.917e-6, 4.065e-5, 1.696e+1
0.248, -4.924e-6, 4.055e-5, 1.698e+1
0.249, -4.930e-6, 4.045e-5, 1.700e+1
0.250, -4.935e-6, 4.035e-5, 1.702e+1
0.251, -4.938e-6, 4.025e-5, 1.704e+1
0.252, -4.939e-6, 4.015e-5, 1.706e+1
0.253, -4.938e-6, 4.006e-5, 1.708e+1
0.254, -4.938e-6, 3.996e-5, 1.710e+1
0.255, -4.932e-6, 3.986e-5, 1.712e+1
0.256, -4.923e-6, 3.976e-5, 1.714e+1
0.257, -4.912e-6, 3.966e-5, 1.716e+1
0.258, -4.905e-6, 3.956e-5, 1.718e+1
0.259, -4.897e-6, 3.946e-5, 1.720e+1
0.260, -4.886e-6, 3.937e-5, 1.722e+1
0.261, -4.873e-6, 3.927e-5, 1.724e+1
0.262, -4.860e-6, 3.917e-5, 1.726e+1
0.263, -4.845e-6, 3.908e-5, 1.728e+1
0.264, -4.827e-6, 3.898e-5, 1.730e+1
0.265, -4.812e-6, 3.888e-5, 1.732e+1
0.266, -4.792e-6, 3.879e-5, 1.734e+1
0.267, -4.772e-6, 3.869e-5, 1.736e+1
0.268, -4.755e-6, 3.860e-5, 1.738e+1
0.269, -4.734e-6, 3.850e-5, 1.740e+1
0.270, -4.712e-6, 3.841e-5, 1.742e+1
0.271, -4.689e-6, 3.831e-5, 1.744e+1
0.272, -4.664e-6, 3.822e-5, 1.746e+1
0.273, -4.642e-6, 3.813e-5, 1.748e+1
0.274, -4.616e-6, 3.804e-5, 1.750e+1
0.275, -4.592e-6, 3.794e-5, 1.752e+1
0.276, -4.568e-6, 3.785e-5, 1.754e+1
0.277, -4.542e-6, 3.776e-5, 1.756e+1
0.278, -4.516e-6, 3.767e-5, 1.758e+1
0.279, -4.490e-6, 3.758e-5, 1.760e+1
0.280, -4.464e-6, 3.749e-5, 1.762e+1
0.281, -4.435e-6, 3.740e-5, 1.764e+1
0.282, -4.405e-6, 3.732e-5, 1.766e+1
0.283, -4.378e-6, 3.723e-5, 1.768e+1
0.284, -4.351e-6, 3.714e-5, 1.770e+1
0.285, -4.324e-6, 3.705e-5, 1.772e+1
0.286, -4.297e-6, 3.697e-5, 1.774e+1
0.287, -4.268e-6, 3.688e-5, 1.776e+1
0.288, -4.242e-6, 3.680e-5, 1.778e+1
0.289, -4.215e-6, 3.671e-5, 1.780e+1
0.290, -4.185e-6, 3.663e-5, 1.782e+1
0.291, -4.158e-6, 3.655e-5, 1.784e+1
0.292, -4.130e-6, 3.646e-5, 1.786e+1
0.293, -4.103e-6, 3.638e-5, 1.788e+1
0.294, -4.075e-6, 3.630e-5, 1.790e+1
0.295, -4.048e-6, 3.622e-5, 1.792e+1
0.296, -4.020e-6, 3.614e-5, 1.794e+1
0.297, -3.992e-6, 3.606e-5, 1.796e+1
0.298, -3.966e-6, 3.598e-5, 1.798e+1
0.299, -3.938e-6, 3.590e-5, 1.800e+1
0.300, -3.911e-6, 3.582e-5, 1.802e+1
0.301, -3.886e-6, 3.575e-5, 1.804e+1
0.302, -3.860e-6, 3.567e-5, 1.806e+1
0.303, -3.833e-6, 3.559e-5, 1.808e+1
0.304, -3.807e-6, 3.552e-5, 1.810e+1
0.305, -3.780e-6, 3.544e-5, 1.812e+1
0.306, -3.755e-6, 3.536e-5, 1.814e+1
0.307, -3.729e-6, 3.529e-5, 1.816e+1
0.308, -3.705e-6, 3.522e-5, 1.818e+1
0.309, -3.680e-6, 3.514e-5, 1.820e+1
0.310, -3.655e-6, 3.507e-5, 1.822e+1
0.311, -3.630e-6, 3.500e-5, 1.824e+1
0.312, -3.607e-6, 3.492e-5, 1.826e+1
0.313, -3.583e-6, 3.485e-5, 1.828e+1
0.314, -3.559e-6, 3.478e-5, 1.830e+1
0.315, -3.536e-6, 3.471e-5, 1.832e+1
0.316, -3.512e-6, 3.464e-5, 1.834e+1
0.317, -3.489e-6, 3.457e-5, 1.836e+1
0.318, -3.467e-6, 3.450e-5, 1.838e+1
0.319, -3.444e-6, 3.443e-5, 1.840e+1
0.320, -3.423e-6, 3.436e-5, 1.842e+1
0.321, -3.401e-6, 3.430e-5, 1.844e+1
0.322, -3.378e-6, 3.423e-5, 1.846e+1
0.323, -3.358e-6, 3.416e-5, 1.848e+1
0.324, -3.335e-6, 3.409e-5, 1.850e+1
0.325, -3.315e-6, 3.403e-5, 1.852e+1
0.326, -3.294e-6, 3.396e-5, 1.854e+1
0.327, -3.274e-6, 3.390e-5, 1.856e+1
0.328, -3.254e-6, 3.383e-5, 1.858e+1
0.329, -3.234e-6, 3.377e-5, 1.860e+1
0.330, -3.215e-6, 3.370e-5, 1.862e+1
0.331, -3.194e-6, 3.364e-5, 1.864e+1
0.332, -3.176e-6, 3.358e-5, 1.866e+1
0.333, -3.156e-6, 3.351e-5, 1.868e+1
0.334, -3.138e-6, 3.345e-5, 1.870e+1
0.335, -3.120e-6, 3.339e-5, 1.872e+1
0.336, -3.102e-6, 3.333e-5, 1.874e+1
0.337, -3.084e-6, 3.326e-5, 1.876e+1
0.338, -3.066e-6, 3.320e-5, 1.878e+1
0.339, -3.050e-6, 3.314e-5, 1.880e+1
0.340, -3.033e-6, 3.308e-5, 1.882e+1
0.341, -3.015e-6, 3.302e-5, 1.884e+1
0.342, -2.999e-6, 3.296e-5, 1.886e+1
0.343, -2.982e-6, 3.290e-5, 1.888e+1
0.344, -2.965e-6, 3.284e-5, 1.890e+1
0.345, -2.950e-6, 3.278e-5, 1.892e+1
0.346, -2.934e-6, 3.272e-5, 1.894e+1
0.347, -2.919e-6, 3.267e-5, 1.896e+1
0.348, -2.902e-6, 3.261e-5, 1.898e+1
0.349, -2.888e-6, 3.255e-5, 1.900e+1
0.350, -2.874e-6, 3.249e-5, 1.902e+1
0.351, -2.858e-6, 3.244e-5, 1.904e+1
0.352, -2.843e-6, 3.238e-5, 1.906e+1
0.353, -2.829e-6, 3.232e-5, 1.908e+1
0.354, -2.815e-6, 3.227e-5, 1.910e+1
0.355, -2.801e-6, 3.221e-5, 1.912e+1
0.356, -2.787e-6, 3.215e-5, 1.914e+1
0.357, -2.774e-6, 3.210e-5, 1.916e+1
0.358, -2.760e-6, 3.204e-5, 1.918e+1
0.359, -2.744e-6, 3.199e-5, 1.920e+1
0.360, -2.733e-6, 3.193e-5, 1.922e+1
0.361, -2.721e-6, 3.188e-5, 1.924e+1
0.362, -2.709e-6, 3.182e-5, 1.926e+1
0.363, -2.696e-6, 3.177e-5, 1.928e+1
0.364, -2.682e-6, 3.172e-5, 1.930e+1
0.365, -2.671e-6, 3.166e-5, 1.932e+1
0.366, -2.659e-6, 3.161e-5, 1.934e+1
0.367, -2.647e-6, 3.156e-5, 1.936e+1
0.368, -2.636e-6, 3.150e-5, 1.938e+1
0.369, -2.625e-6, 3.145e-5, 1.940e+1
0.370, -2.612e-6, 3.140e-5, 1.942e+1
0.371, -2.602e-6, 3.135e-5, 1.944e+1
0.372, -2.590e-6, 3.130e-5, 1.946e+1
0.373, -2.579e-6, 3.124e-5, 1.948e+1
0.374, -2.569e-6, 3.119e-5, 1.950e+1
0.375, -2.558e-6, 3.114e-5, 1.952e+1
0.376, -2.548e-6, 3.109e-5, 1.954e+1
0.377, -2.537e-6, 3.104e-5, 1.956e+1
0.378, -2.527e-6, 3.099e-5, 1.958e+1
0.379, -2.517e-6, 3.094e-5, 1.960e+1
0.380, -2.507e-6, 3.089e-5, 1.962e+1
0.381, -2.497e-6, 3.084e-5, 1.964e+1
0.382, -2.488e-6, 3.079e-5, 1.966e+1
0.383, -2.478e-6, 3.074e-5, 1.968e+1
0.384, -2.468e-6, 3.069e-5, 1.970e+1
0.385, -2.459e-6, 3.064e-5, 1.972e+1
0.386, -2.450e-6, 3.059e-5, 1.974e+1
0.387, -2.441e-6, 3.054e-5, 1.976e+1
0.388, -2.432e-6, 3.050e-5, 1.978e+1
0.389, -2.422e-6, 3.045e-5, 1.980e+1
0.390, -2.415e-6, 3.040e-5, 1.982e+1
0.391, -2.406e-6, 3.035e-5, 1.984e+1
0.392, -2.397e-6, 3.030e-5, 1.986e+1
0.393, -2.390e-6, 3.025e-5, 1.988e+1
0.394, -2.382e-6, 3.021e-5, 1.990e+1
0.395, -2.374e-6, 3.016e-5, 1.992e+1
0.396, -2.366e-6, 3.011e-5, 1.994e+1
0.397, -2.358e-6, 3.007e-5, 1.996e+1
0.398, -2.350e-6, 3.002e-5, 1.998e+1
0.399, -2.342e-6, 2.997e-5, 2.000e+1
0.400, -2.335e-6, 2.992e-5, 2.002e+1
0.401, -2.328e-6, 2.988e-5, 2.004e+1
0.402, -2.320e-6, 2.983e-5, 2.006e+1
0.403, -2.314e-6, 2.979e-5, 2.008e+1
0.404, -2.308e-6, 2.974e-5, 2.010e+1
0.405, -2.299e-6, 2.969e-5, 2.012e+1
0.406, -2.293e-6, 2.965e-5, 2.014e+1
0.407, -2.286e-6, 2.960e-5, 2.016e+1
0.408, -2.279e-6, 2.956e-5, 2.018e+1
0.409, -2.273e-6, 2.951e-5, 2.020e+1
0.410, -2.255e-6, 2.947e-5, 2.022e+1
0.411, -2.257e-6, 2.942e-5, 2.024e+1
0.412, -2.253e-6, 2.938e-5, 2.026e+1
0.413, -2.247e-6, 2.933e-5, 2.028e+1
0.414, -2.240e-6, 2.929e-5, 2.030e+1
0.415, -2.234e-6, 2.924e-5, 2.032e+1
0.416, -2.229e-6, 2.920e-5, 2.034e+1
0.417, -2.225e-6, 2.915e-5, 2.036e+1
0.418, -2.217e-6, 2.911e-5, 2.038e+1
0.419, -2.213e-6, 2.906e-5, 2.040e+1
0.420, -2.208e-6, 2.902e-5, 2.042e+1
0.421, -2.201e-6, 2.898e-5, 2.044e+1
0.422, -2.197e-6, 2.893e-5, 2.046e+1
0.423, -2.192e-6, 2.889e-5, 2.048e+1
0.424, -2.186e-6, 2.884e-5, 2.050e+1
0.425, -2.182e-6, 2.880e-5, 2.052e+1
0.426, -2.176e-6, 2.876e-5, 2.054e+1
0.427, -2.172e-6, 2.871e-5, 2.056e+1
0.428, -2.167e-6, 2.867e-5, 2.058e+1
0.429, -2.163e-6, 2.863e-5, 2.060e+1
0.430, -2.158e-6, 2.858e-5, 2.062e+1
0.431, -2.153e-6, 2.854e-5, 2.064e+1
0.432, -2.149e-6, 2.850e-5, 2.066e+1
0.433, -2.146e-6, 2.845e-5, 2.068e+1
0.434, -2.141e-6, 2.841e-5, 2.070e+1
0.435, -2.136e-6, 2.837e-5, 2.072e+1
0.436, -2.133e-6, 2.833e-5, 2.074e+1
0.437, -2.128e-6, 2.828e-5, 2.076e+1
0.438, -2.125e-6, 2.824e-5, 2.078e+1
0.439, -2.121e-6, 2.820e-5, 2.080e+1
0.440, -2.118e-6, 2.816e-5, 2.082e+1
0.441, -2.114e-6, 2.811e-5, 2.084e+1
0.442, -2.111e-6, 2.807e-5, 2.086e+1
0.443, -2.108e-6, 2.803e-5, 2.088e+1
0.444, -2.104e-6, 2.799e-5, 2.090e+1
0.445, -2.100e-6, 2.795e-5, 2.092e+1
0.446, -2.098e-6, 2.790e-5, 2.094e+1
0.447, -2.095e-6, 2.786e-5, 2.096e+1
0.448, -2.092e-6, 2.782e-5, 2.098e+1
0.449, -2.089e-6, 2.778e-5, 2.100e+1
0.450, -2.086e-6, 2.774e-5, 2.102e+1
0.451, -2.083e-6, 2.769e-5, 2.104e+1
0.452, -2.080e-6, 2.765e-5, 2.106e+1
0.453, -2.078e-6, 2.761e-5, 2.108e+1
0.454, -2.076e-6, 2.757e-5, 2.110e+1
0.455, -2.074e-6, 2.753e-5, 2.112e+1
0.456, -2.072e-6, 2.749e-5, 2.114e+1
0.457, -2.069e-6, 2.745e-5, 2.116e+1
0.458, -2.067e-6, 2.740e-5, 2.118e+1
0.459, -2.065e-6, 2.736e-5, 2.120e+1
0.460, -2.063e-6, 2.732e-5, 2.122e+1
0.461, -2.059e-6, 2.728e-5, 2.124e+1
0.462, -2.059e-6, 2.724e-5, 2.126e+1
0.463, -2.058e-6, 2.720e-5, 2.128e+1
0.464, -2.055e-6, 2.716e-5, 2.130e+1
0.465, -2.056e-6, 2.712e-5, 2.132e+1
0.466, -2.053e-6, 2.707e-5, 2.134e+1
0.467, -2.053e-6, 2.703e-5, 2.136e+1
0.468, -2.053e-6, 2.699e-5, 2.138e+1
0.469, -2.050e-6, 2.695e-5, 2.140e+1
0.470, -2.049e-6, 2.691e-5, 2.142e+1
0.471, -2.048e-6, 2.687e-5, 2.144e+1
0.472, -2.048e-6, 2.683e-5, 2.146e+1
0.473, -2.048e-6, 2.679e-5, 2.148e+1
0.474, -2.047e-6, 2.675e-5, 2.150e+1
0.475, -2.046e-6, 2.671e-5, 2.152e+1
0.476, -2.046e-6, 2.667e-5, 2.154e+1
0.477, -2.046e-6, 2.662e-5, 2.156e+1
0.478, -2.046e-6, 2.658e-5, 2.158e+1
0.479, -2.045e-6, 2.654e-5, 2.160e+1
0.480, -2.046e-6, 2.650e-5, 2.162e+1
0.481, -2.046e-6, 2.646e-5, 2.164e+1
0.482, -2.045e-6, 2.642e-5, 2.166e+1
0.483, -2.046e-6, 2.638e-5, 2.168e+1
0.484, -2.047e-6, 2.634e-5, 2.170e+1
0.485, -2.048e-6, 2.630e-5, 2.172e+1
0.486, -2.047e-6, 2.626e-5, 2.174e+1
0.487, -2.047e-6, 2.621e-5, 2.176e+1
0.488, -2.049e-6, 2.617e-5, 2.178e+1
0.489, -2.051e-6, 2.613e-5, 2.180e+1
0.490, -2.052e-6, 2.609e-5, 2.182e+1
0.491, -2.052e-6, 2.605e-5, 2.184e+1
0.492, -2.054e-6, 2.601e-5, 2.186e+1
0.493, -2.055e-6, 2.597e-5, 2.188e+1
0.494, -2.057e-6, 2.593e-5, 2.190e+1
0.495, -2.058e-6, 2.589e-5, 2.192e+1
0.496, -2.060e-6, 2.585e-5, 2.194e+1
0.497, -2.061e-6, 2.580e-5, 2.196e+1
0.498, -2.063e-6, 2.576e-5, 2.198e+1
0.499, -2.066e-6, 2.572e-5, 2.200e+1
0.500, -2.068e-6, 2.568e-5, 2.202e+1
0.501, -2.070e-6, 2.564e-5, 2.204e+1
0.502, -2.072e-6, 2.560e-5, 2.206e+1
0.503, -2.074e-6, 2.556e-5, 2.208e+1
0.504, -2.076e-6, 2.551e-5, 2.210e+1
0.505, -2.080e-6, 2.547e-5, 2.212e+1
0.506, -2.082e-6, 2.543e-5, 2.214e+1
0.507, -2.085e-6, 2.539e-5, 2.216e+1
0.508, -2.087e-6, 2.535e-5, 2.218e+1
0.509, -2.090e-6, 2.531e-5, 2.220e+1
0.510, -2.093e-6, 2.526e-5, 2.222e+1
0.511, -2.096e-6, 2.522e-5, 2.224e+1
0.512, -2.101e-6, 2.518e-5, 2.226e+1
0.513, -2.105e-6, 2.514e-5, 2.228e+1
0.514, -2.106e-6, 2.510e-5, 2.230e+1
0.515, -2.110e-6, 2.505e-5, 2.232e+1
0.516, -2.114e-6, 2.501e-5, 2.234e+1
0.517, -2.118e-6, 2.497e-5, 2.236e+1
0.518, -2.122e-6, 2.493e-5, 2.238e+1
0.519, -2.126e-6, 2.488e-5, 2.240e+1
0.520, -2.129e-6, 2.484e-5, 2.242e+1
0.521, -2.134e-6, 2.480e-5, 2.244e+1
0.522, -2.138e-6, 2.476e-5, 2.246e+1
0.523, -2.142e-6, 2.471e-5, 2.248e+1
0.524, -2.146e-6, 2.467e-5, 2.250e+1
0.525, -2.151e-6, 2.463e-5, 2.252e+1
0.526, -2.156e-6, 2.458e-5, 2.254e+1
0.527, -2.161e-6, 2.454e-5, 2.256e+1
0.528, -2.165e-6, 2.450e-5, 2.258e+1
0.529, -2.171e-6, 2.445e-5, 2.260e+1
0.530, -2.175e-6, 2.441e-5, 2.262e+1
0.531, -2.181e-6, 2.437e-5, 2.264e+1
0.532, -2.186e-6, 2.432e-5, 2.266e+1
0.533, -2.190e-6, 2.428e-5, 2.268e+1
0.534, -2.196e-6, 2.424e-5, 2.270e+1
0.535, -2.203e-6, 2.419e-5, 2.272e+1
0.536, -2.207e-6, 2.415e-5, 2.274e+1
0.537, -2.213e-6, 2.410e-5, 2.276e+1
0.538, -2.218e-6, 2.406e-5, 2.278e+1
0.539, -2.225e-6, 2.401e-5, 2.280e+1
0.540, -2.231e-6, 2.397e-5, 2.282e+1
0.541, -2.237e-6, 2.392e-5, 2.284e+1
0.542, -2.244e-6, 2.388e-5, 2.286e+1
0.543, -2.250e-6, 2.383e-5, 2.288e+1
0.544, -2.257e-6, 2.379e-5, 2.290e+1
0.545, -2.263e-6, 2.374e-5, 2.292e+1
0.546, -2.270e-6, 2.370e-5, 2.294e+1
0.547, -2.276e-6, 2.365e-5, 2.296e+1
0.548, -2.283e-6, 2.361e-5, 2.298e+1
0.549, -2.290e-6, 2.356e-5, 2.300e+1
0.550, -2.297e-6, 2.352e-5, 2.302e+1
0.551, -2.306e-6, 2.347e-5, 2.304e+1
0.552, -2.311e-6, 2.342e-5, 2.306e+1
0.553, -2.318e-6, 2.338e-5, 2.308e+1
0.554, -2.328e-6, 2.333e-5, 2.310e+1
0.555, -2.334e-6, 2.328e-5, 2.312e+1
0.556, -2.341e-6, 2.324e-5, 2.314e+1
0.557, -2.349e-6, 2.319e-5, 2.316e+1
0.558, -2.358e-6, 2.314e-5, 2.318e+1
0.559, -2.365e-6, 2.310e-5, 2.320e+1
0.560, -2.373e-6, 2.305e-5, 2.322e+1
0.561, -2.382e-6, 2.300e-5, 2.324e+1
0.562, -2.389e-6, 2.295e-5, 2.326e+1
0.563, -2.397e-6, 2.291e-5, 2.328e+1
0.564, -2.405e-6, 2.286e-5, 2.330e+1
0.565, -2.414e-6, 2.281e-5, 2.332e+1
0.566, -2.423e-6, 2.276e-5, 2.334e+1
0.567, -2.432e-6, 2.271e-5, 2.336e+1
0.568, -2.442e-6, 2.266e-5, 2.338e+1
0.569, -2.451e-6, 2.261e-5, 2.340e+1
0.570, -2.460e-6, 2.256e-5, 2.342e+1
0.571, -2.469e-6, 2.252e-5, 2.344e+1
0.572, -2.478e-6, 2.247e-5, 2.346e+1
0.573, -2.487e-6, 2.242e-5, 2.348e+1
0.574, -2.497e-6, 2.237e-5, 2.350e+1
0.575, -2.507e-6, 2.232e-5, 2.352e+1
0.576, -2.516e-6, 2.227e-5, 2.354e+1
0.577, -2.526e-6, 2.221e-5, 2.356e+1
0.578, -2.536e-6, 2.216e-5, 2.358e+1
0.579, -2.546e-6, 2.211e-5, 2.360e+1
0.580, -2.556e-6, 2.206e-5, 2.362e+1
0.581, -2.566e-6, 2.201e-5, 2.364e+1
0.582, -2.577e-6, 2.196e-5, 2.366e+1
0.583, -2.588e-6, 2.191e-5, 2.368e+1
0.584, -2.597e-6, 2.186e-5, 2.370e+1
0.585, -2.609e-6, 2.180e-5, 2.372e+1
0.586, -2.618e-6, 2.175e-5, 2.374e+1
0.587, -2.630e-6, 2.170e-5, 2.376e+1
0.588, -2.641e-6, 2.165e-5, 2.378e+1
0.589, -2.652e-6, 2.159e-5, 2.380e+1
0.590, -2.663e-6, 2.154e-5, 2.382e+1
0.591, -2.674e-6, 2.149e-5, 2.384e+1
0.592, -2.686e-6, 2.143e-5, 2.386e+1
0.593, -2.698e-6, 2.138e-5, 2.388e+1
0.594, -2.709e-6, 2.132e-5, 2.390e+1
0.595, -2.722e-6, 2.127e-5, 2.392e+1
0.596, -2.733e-6, 2.121e-5, 2.394e+1
0.597, -2.744e-6, 2.116e-5, 2.396e+1
0.598, -2.757e-6, 2.110e-5, 2.398e+1
0.599, -2.770e-6, 2.105e-5, 2.400e+1
