May 18, 2026   15:42:25
Cyclic Voltammetry
File: 0_2ml.bin
Data Source:  Experiment
Instrument Model:  CHI660D
Header: 
Note: 

Init E (V) = 0.6
High E (V) = 0.6
Low E (V) = 0
Init P/N = N
Scan Rate (V/s) = 0.05
Segment = 2
Sample Interval (V) = 0.001
Quiet Time (sec) = 2
Sensitivity (A/V) = 1e-5

Segment 1:
Ep = 0.185V
Eh = 0.244V
ip = 1.202e-5A
Ah = 1.544e-5C

Segment 2:
Ep = 0.251V
Eh = 0.194V
ip = -9.377e-6A
Ah = -1.139e-5C

Potential/V, Current/A, Charge/C, Time/s

Segment 1:
0.600, -1.103e-6, -2.206e-8, 2.000e-2
0.599, -9.616e-7, -4.129e-8, 4.000e-2
0.598, -9.067e-7, -5.943e-8, 6.000e-2
0.597, -8.752e-7, -7.693e-8, 8.000e-2
0.596, -8.478e-7, -9.389e-8, 1.000e-1
0.595, -8.220e-7, -1.103e-7, 1.200e-1
0.594, -8.001e-7, -1.263e-7, 1.400e-1
0.593, -7.774e-7, -1.419e-7, 1.600e-1
0.592, -7.571e-7, -1.570e-7, 1.800e-1
0.591, -7.370e-7, -1.718e-7, 2.000e-1
0.590, -7.166e-7, -1.861e-7, 2.200e-1
0.589, -6.992e-7, -2.001e-7, 2.400e-1
0.588, -6.810e-7, -2.137e-7, 2.600e-1
0.587, -6.631e-7, -2.270e-7, 2.800e-1
0.586, -6.453e-7, -2.399e-7, 3.000e-1
0.585, -6.294e-7, -2.525e-7, 3.200e-1
0.584, -6.137e-7, -2.647e-7, 3.400e-1
0.583, -5.976e-7, -2.767e-7, 3.600e-1
0.582, -5.803e-7, -2.883e-7, 3.800e-1
0.581, -5.664e-7, -2.996e-7, 4.000e-1
0.580, -5.519e-7, -3.106e-7, 4.200e-1
0.579, -5.385e-7, -3.214e-7, 4.400e-1
0.578, -5.230e-7, -3.319e-7, 4.600e-1
0.577, -5.099e-7, -3.421e-7, 4.800e-1
0.576, -4.964e-7, -3.520e-7, 5.000e-1
0.575, -4.824e-7, -3.617e-7, 5.200e-1
0.574, -4.698e-7, -3.711e-7, 5.400e-1
0.573, -4.566e-7, -3.802e-7, 5.600e-1
0.572, -4.436e-7, -3.891e-7, 5.800e-1
0.571, -4.323e-7, -3.977e-7, 6.000e-1
0.570, -4.200e-7, -4.061e-7, 6.200e-1
0.569, -4.081e-7, -4.143e-7, 6.400e-1
0.568, -3.979e-7, -4.222e-7, 6.600e-1
0.567, -3.865e-7, -4.300e-7, 6.800e-1
0.566, -3.744e-7, -4.374e-7, 7.000e-1
0.565, -3.629e-7, -4.447e-7, 7.200e-1
0.564, -3.525e-7, -4.517e-7, 7.400e-1
0.563, -3.452e-7, -4.587e-7, 7.600e-1
0.562, -3.328e-7, -4.653e-7, 7.800e-1
0.561, -3.222e-7, -4.718e-7, 8.000e-1
0.560, -3.120e-7, -4.780e-7, 8.200e-1
0.559, -3.020e-7, -4.840e-7, 8.400e-1
0.558, -2.936e-7, -4.899e-7, 8.600e-1
0.557, -2.818e-7, -4.955e-7, 8.800e-1
0.556, -2.730e-7, -5.010e-7, 9.000e-1
0.555, -2.640e-7, -5.063e-7, 9.200e-1
0.554, -2.553e-7, -5.114e-7, 9.400e-1
0.553, -2.468e-7, -5.163e-7, 9.600e-1
0.552, -2.373e-7, -5.211e-7, 9.800e-1
0.551, -2.284e-7, -5.256e-7, 1.000e+0
0.550, -2.188e-7, -5.300e-7, 1.020e+0
0.549, -2.118e-7, -5.342e-7, 1.040e+0
0.548, -2.038e-7, -5.383e-7, 1.060e+0
0.547, -1.952e-7, -5.422e-7, 1.080e+0
0.546, -1.875e-7, -5.460e-7, 1.100e+0
0.545, -1.797e-7, -5.496e-7, 1.120e+0
0.544, -1.706e-7, -5.530e-7, 1.140e+0
0.543, -1.625e-7, -5.562e-7, 1.160e+0
0.542, -1.565e-7, -5.594e-7, 1.180e+0
0.541, -1.485e-7, -5.623e-7, 1.200e+0
0.540, -1.404e-7, -5.651e-7, 1.220e+0
0.539, -1.345e-7, -5.678e-7, 1.240e+0
0.538, -1.264e-7, -5.704e-7, 1.260e+0
0.537, -1.197e-7, -5.728e-7, 1.280e+0
0.536, -1.135e-7, -5.750e-7, 1.300e+0
0.535, -1.054e-7, -5.771e-7, 1.320e+0
0.534, -9.900e-8, -5.791e-7, 1.340e+0
0.533, -9.276e-8, -5.810e-7, 1.360e+0
0.532, -8.547e-8, -5.827e-7, 1.380e+0
0.531, -7.855e-8, -5.842e-7, 1.400e+0
0.530, -7.219e-8, -5.857e-7, 1.420e+0
0.529, -6.648e-8, -5.870e-7, 1.440e+0
0.528, -5.973e-8, -5.882e-7, 1.460e+0
0.527, -5.378e-8, -5.893e-7, 1.480e+0
0.526, -4.803e-8, -5.903e-7, 1.500e+0
0.525, -4.093e-8, -5.911e-7, 1.520e+0
0.524, -3.412e-8, -5.918e-7, 1.540e+0
0.523, -2.930e-8, -5.923e-7, 1.560e+0
0.522, -2.281e-8, -5.928e-7, 1.580e+0
0.521, -1.741e-8, -5.931e-7, 1.600e+0
0.520, -1.293e-8, -5.934e-7, 1.620e+0
0.519, -6.584e-9, -5.935e-7, 1.640e+0
0.518, -5.272e-11, -5.935e-7, 1.660e+0
0.517, 5.327e-9, -5.934e-7, 1.680e+0
0.516, 1.152e-8, -5.932e-7, 1.700e+0
0.515, 1.500e-8, -5.929e-7, 1.720e+0
0.514, 2.169e-8, -5.925e-7, 1.740e+0
0.513, 2.687e-8, -5.919e-7, 1.760e+0
0.512, 3.263e-8, -5.913e-7, 1.780e+0
0.511, 3.755e-8, -5.905e-7, 1.800e+0
0.510, 4.210e-8, -5.897e-7, 1.820e+0
0.509, 4.736e-8, -5.887e-7, 1.840e+0
0.508, 5.244e-8, -5.877e-7, 1.860e+0
0.507, 5.713e-8, -5.865e-7, 1.880e+0
0.506, 6.316e-8, -5.853e-7, 1.900e+0
0.505, 6.744e-8, -5.839e-7, 1.920e+0
0.504, 7.218e-8, -5.825e-7, 1.940e+0
0.503, 7.685e-8, -5.809e-7, 1.960e+0
0.502, 8.191e-8, -5.793e-7, 1.980e+0
0.501, 8.569e-8, -5.776e-7, 2.000e+0
0.500, 8.964e-8, -5.758e-7, 2.020e+0
0.499, 9.482e-8, -5.739e-7, 2.040e+0
0.498, 9.944e-8, -5.719e-7, 2.060e+0
0.497, 1.041e-7, -5.698e-7, 2.080e+0
0.496, 1.086e-7, -5.677e-7, 2.100e+0
0.495, 1.129e-7, -5.654e-7, 2.120e+0
0.494, 1.170e-7, -5.631e-7, 2.140e+0
0.493, 1.221e-7, -5.606e-7, 2.160e+0
0.492, 1.277e-7, -5.581e-7, 2.180e+0
0.491, 1.297e-7, -5.555e-7, 2.200e+0
0.490, 1.337e-7, -5.528e-7, 2.220e+0
0.489, 1.376e-7, -5.501e-7, 2.240e+0
0.488, 1.418e-7, -5.472e-7, 2.260e+0
0.487, 1.470e-7, -5.443e-7, 2.280e+0
0.486, 1.494e-7, -5.413e-7, 2.300e+0
0.485, 1.548e-7, -5.382e-7, 2.320e+0
0.484, 1.590e-7, -5.350e-7, 2.340e+0
0.483, 1.626e-7, -5.318e-7, 2.360e+0
0.482, 1.662e-7, -5.284e-7, 2.380e+0
0.481, 1.696e-7, -5.250e-7, 2.400e+0
0.480, 1.747e-7, -5.215e-7, 2.420e+0
0.479, 1.783e-7, -5.180e-7, 2.440e+0
0.478, 1.820e-7, -5.143e-7, 2.460e+0
0.477, 1.854e-7, -5.106e-7, 2.480e+0
0.476, 1.908e-7, -5.068e-7, 2.500e+0
0.475, 1.929e-7, -5.030e-7, 2.520e+0
0.474, 1.967e-7, -4.990e-7, 2.540e+0
0.473, 2.002e-7, -4.950e-7, 2.560e+0
0.472, 2.028e-7, -4.910e-7, 2.580e+0
0.471, 2.074e-7, -4.868e-7, 2.600e+0
0.470, 2.118e-7, -4.826e-7, 2.620e+0
0.469, 2.144e-7, -4.783e-7, 2.640e+0
0.468, 2.188e-7, -4.739e-7, 2.660e+0
0.467, 2.216e-7, -4.695e-7, 2.680e+0
0.466, 2.261e-7, -4.650e-7, 2.700e+0
0.465, 2.287e-7, -4.604e-7, 2.720e+0
0.464, 2.323e-7, -4.557e-7, 2.740e+0
0.463, 2.356e-7, -4.510e-7, 2.760e+0
0.462, 2.373e-7, -4.463e-7, 2.780e+0
0.461, 2.404e-7, -4.415e-7, 2.800e+0
0.460, 2.437e-7, -4.366e-7, 2.820e+0
0.459, 2.479e-7, -4.316e-7, 2.840e+0
0.458, 2.522e-7, -4.266e-7, 2.860e+0
0.457, 2.555e-7, -4.215e-7, 2.880e+0
0.456, 2.584e-7, -4.163e-7, 2.900e+0
0.455, 2.609e-7, -4.111e-7, 2.920e+0
0.454, 2.647e-7, -4.058e-7, 2.940e+0
0.453, 2.683e-7, -4.004e-7, 2.960e+0
0.452, 2.710e-7, -3.950e-7, 2.980e+0
0.451, 2.747e-7, -3.895e-7, 3.000e+0
0.450, 2.779e-7, -3.840e-7, 3.020e+0
0.449, 2.809e-7, -3.784e-7, 3.040e+0
0.448, 2.841e-7, -3.727e-7, 3.060e+0
0.447, 2.875e-7, -3.669e-7, 3.080e+0
0.446, 2.902e-7, -3.611e-7, 3.100e+0
0.445, 2.934e-7, -3.552e-7, 3.120e+0
0.444, 2.960e-7, -3.493e-7, 3.140e+0
0.443, 2.990e-7, -3.434e-7, 3.160e+0
0.442, 3.033e-7, -3.373e-7, 3.180e+0
0.441, 3.061e-7, -3.312e-7, 3.200e+0
0.440, 3.087e-7, -3.250e-7, 3.220e+0
0.439, 3.115e-7, -3.188e-7, 3.240e+0
0.438, 3.146e-7, -3.125e-7, 3.260e+0
0.437, 3.179e-7, -3.061e-7, 3.280e+0
0.436, 3.201e-7, -2.997e-7, 3.300e+0
0.435, 3.227e-7, -2.932e-7, 3.320e+0
0.434, 3.270e-7, -2.867e-7, 3.340e+0
0.433, 3.300e-7, -2.801e-7, 3.360e+0
0.432, 3.329e-7, -2.735e-7, 3.380e+0
0.431, 3.354e-7, -2.667e-7, 3.400e+0
0.430, 3.381e-7, -2.600e-7, 3.420e+0
0.429, 3.421e-7, -2.531e-7, 3.440e+0
0.428, 3.437e-7, -2.463e-7, 3.460e+0
0.427, 3.468e-7, -2.393e-7, 3.480e+0
0.426, 3.509e-7, -2.323e-7, 3.500e+0
0.425, 3.534e-7, -2.252e-7, 3.520e+0
0.424, 3.562e-7, -2.181e-7, 3.540e+0
0.423, 3.582e-7, -2.110e-7, 3.560e+0
0.422, 3.619e-7, -2.037e-7, 3.580e+0
0.421, 3.665e-7, -1.964e-7, 3.600e+0
0.420, 3.692e-7, -1.890e-7, 3.620e+0
0.419, 3.711e-7, -1.816e-7, 3.640e+0
0.418, 3.745e-7, -1.741e-7, 3.660e+0
0.417, 3.768e-7, -1.666e-7, 3.680e+0
0.416, 3.795e-7, -1.590e-7, 3.700e+0
0.415, 3.830e-7, -1.513e-7, 3.720e+0
0.414, 3.857e-7, -1.436e-7, 3.740e+0
0.413, 3.882e-7, -1.358e-7, 3.760e+0
0.412, 3.924e-7, -1.280e-7, 3.780e+0
0.411, 3.946e-7, -1.201e-7, 3.800e+0
0.410, 3.942e-7, -1.122e-7, 3.820e+0
0.409, 3.910e-7, -1.044e-7, 3.840e+0
0.408, 4.012e-7, -9.636e-8, 3.860e+0
0.407, 4.061e-7, -8.824e-8, 3.880e+0
0.406, 4.093e-7, -8.005e-8, 3.900e+0
0.405, 4.128e-7, -7.180e-8, 3.920e+0
0.404, 4.143e-7, -6.351e-8, 3.940e+0
0.403, 4.187e-7, -5.513e-8, 3.960e+0
0.402, 4.225e-7, -4.668e-8, 3.980e+0
0.401, 4.251e-7, -3.818e-8, 4.000e+0
0.400, 4.278e-7, -2.963e-8, 4.020e+0
0.399, 4.308e-7, -2.101e-8, 4.040e+0
0.398, 4.351e-7, -1.231e-8, 4.060e+0
0.397, 4.391e-7, -3.526e-9, 4.080e+0
0.396, 4.421e-7, 5.317e-9, 4.100e+0
0.395, 4.452e-7, 1.422e-8, 4.120e+0
0.394, 4.485e-7, 2.319e-8, 4.140e+0
0.393, 4.511e-7, 3.221e-8, 4.160e+0
0.392, 4.548e-7, 4.131e-8, 4.180e+0
0.391, 4.586e-7, 5.048e-8, 4.200e+0
0.390, 4.626e-7, 5.973e-8, 4.220e+0
0.389, 4.668e-7, 6.907e-8, 4.240e+0
0.388, 4.706e-7, 7.848e-8, 4.260e+0
0.387, 4.735e-7, 8.795e-8, 4.280e+0
0.386, 4.773e-7, 9.750e-8, 4.300e+0
0.385, 4.806e-7, 1.071e-7, 4.320e+0
0.384, 4.841e-7, 1.168e-7, 4.340e+0
0.383, 4.881e-7, 1.266e-7, 4.360e+0
0.382, 4.923e-7, 1.364e-7, 4.380e+0
0.381, 4.960e-7, 1.463e-7, 4.400e+0
0.380, 5.011e-7, 1.563e-7, 4.420e+0
0.379, 5.047e-7, 1.664e-7, 4.440e+0
0.378, 5.094e-7, 1.766e-7, 4.460e+0
0.377, 5.146e-7, 1.869e-7, 4.480e+0
0.376, 5.184e-7, 1.973e-7, 4.500e+0
0.375, 5.222e-7, 2.077e-7, 4.520e+0
0.374, 5.271e-7, 2.183e-7, 4.540e+0
0.373, 5.317e-7, 2.289e-7, 4.560e+0
0.372, 5.365e-7, 2.396e-7, 4.580e+0
0.371, 5.424e-7, 2.505e-7, 4.600e+0
0.370, 5.460e-7, 2.614e-7, 4.620e+0
0.369, 5.503e-7, 2.724e-7, 4.640e+0
0.368, 5.561e-7, 2.835e-7, 4.660e+0
0.367, 5.616e-7, 2.948e-7, 4.680e+0
0.366, 5.677e-7, 3.061e-7, 4.700e+0
0.365, 5.737e-7, 3.176e-7, 4.720e+0
0.364, 5.780e-7, 3.291e-7, 4.740e+0
0.363, 5.833e-7, 3.408e-7, 4.760e+0
0.362, 5.895e-7, 3.526e-7, 4.780e+0
0.361, 5.961e-7, 3.645e-7, 4.800e+0
0.360, 6.014e-7, 3.766e-7, 4.820e+0
0.359, 6.081e-7, 3.887e-7, 4.840e+0
0.358, 6.117e-7, 4.009e-7, 4.860e+0
0.357, 6.208e-7, 4.134e-7, 4.880e+0
0.356, 6.283e-7, 4.259e-7, 4.900e+0
0.355, 6.345e-7, 4.386e-7, 4.920e+0
0.354, 6.429e-7, 4.515e-7, 4.940e+0
0.353, 6.499e-7, 4.645e-7, 4.960e+0
0.352, 6.580e-7, 4.776e-7, 4.980e+0
0.351, 6.657e-7, 4.910e-7, 5.000e+0
0.350, 6.722e-7, 5.044e-7, 5.020e+0
0.349, 6.816e-7, 5.180e-7, 5.040e+0
0.348, 6.899e-7, 5.318e-7, 5.060e+0
0.347, 6.978e-7, 5.458e-7, 5.080e+0
0.346, 7.085e-7, 5.600e-7, 5.100e+0
0.345, 7.179e-7, 5.743e-7, 5.120e+0
0.344, 7.262e-7, 5.888e-7, 5.140e+0
0.343, 7.376e-7, 6.036e-7, 5.160e+0
0.342, 7.461e-7, 6.185e-7, 5.180e+0
0.341, 7.568e-7, 6.336e-7, 5.200e+0
0.340, 7.681e-7, 6.490e-7, 5.220e+0
0.339, 7.786e-7, 6.646e-7, 5.240e+0
0.338, 7.897e-7, 6.804e-7, 5.260e+0
0.337, 8.014e-7, 6.964e-7, 5.280e+0
0.336, 8.134e-7, 7.127e-7, 5.300e+0
0.335, 8.268e-7, 7.292e-7, 5.320e+0
0.334, 8.390e-7, 7.460e-7, 5.340e+0
0.333, 8.515e-7, 7.630e-7, 5.360e+0
0.332, 8.650e-7, 7.803e-7, 5.380e+0
0.331, 8.787e-7, 7.979e-7, 5.400e+0
0.330, 8.944e-7, 8.158e-7, 5.420e+0
0.329, 9.106e-7, 8.340e-7, 5.440e+0
0.328, 9.241e-7, 8.525e-7, 5.460e+0
0.327, 9.414e-7, 8.713e-7, 5.480e+0
0.326, 9.576e-7, 8.904e-7, 5.500e+0
0.325, 9.744e-7, 9.099e-7, 5.520e+0
0.324, 9.924e-7, 9.298e-7, 5.540e+0
0.323, 1.011e-6, 9.500e-7, 5.560e+0
0.322, 1.029e-6, 9.706e-7, 5.580e+0
0.321, 1.048e-6, 9.915e-7, 5.600e+0
0.320, 1.070e-6, 1.013e-6, 5.620e+0
0.319, 1.092e-6, 1.035e-6, 5.640e+0
0.318, 1.112e-6, 1.057e-6, 5.660e+0
0.317, 1.133e-6, 1.080e-6, 5.680e+0
0.316, 1.158e-6, 1.103e-6, 5.700e+0
0.315, 1.179e-6, 1.126e-6, 5.720e+0
0.314, 1.206e-6, 1.151e-6, 5.740e+0
0.313, 1.231e-6, 1.175e-6, 5.760e+0
0.312, 1.257e-6, 1.200e-6, 5.780e+0
0.311, 1.285e-6, 1.226e-6, 5.800e+0
0.310, 1.312e-6, 1.252e-6, 5.820e+0
0.309, 1.341e-6, 1.279e-6, 5.840e+0
0.308, 1.372e-6, 1.306e-6, 5.860e+0
0.307, 1.405e-6, 1.335e-6, 5.880e+0
0.306, 1.435e-6, 1.363e-6, 5.900e+0
0.305, 1.466e-6, 1.393e-6, 5.920e+0
0.304, 1.501e-6, 1.423e-6, 5.940e+0
0.303, 1.538e-6, 1.453e-6, 5.960e+0
0.302, 1.572e-6, 1.485e-6, 5.980e+0
0.301, 1.610e-6, 1.517e-6, 6.000e+0
0.300, 1.650e-6, 1.550e-6, 6.020e+0
0.299, 1.688e-6, 1.584e-6, 6.040e+0
0.298, 1.731e-6, 1.618e-6, 6.060e+0
0.297, 1.775e-6, 1.654e-6, 6.080e+0
0.296, 1.816e-6, 1.690e-6, 6.100e+0
0.295, 1.863e-6, 1.727e-6, 6.120e+0
0.294, 1.911e-6, 1.766e-6, 6.140e+0
0.293, 1.960e-6, 1.805e-6, 6.160e+0
0.292, 2.008e-6, 1.845e-6, 6.180e+0
0.291, 2.060e-6, 1.886e-6, 6.200e+0
0.290, 2.116e-6, 1.929e-6, 6.220e+0
0.289, 2.171e-6, 1.972e-6, 6.240e+0
0.288, 2.228e-6, 2.017e-6, 6.260e+0
0.287, 2.285e-6, 2.062e-6, 6.280e+0
0.286, 2.347e-6, 2.109e-6, 6.300e+0
0.285, 2.409e-6, 2.157e-6, 6.320e+0
0.284, 2.471e-6, 2.207e-6, 6.340e+0
0.283, 2.538e-6, 2.258e-6, 6.360e+0
0.282, 2.607e-6, 2.310e-6, 6.380e+0
0.281, 2.672e-6, 2.363e-6, 6.400e+0
0.280, 2.749e-6, 2.418e-6, 6.420e+0
0.279, 2.821e-6, 2.475e-6, 6.440e+0
0.278, 2.896e-6, 2.532e-6, 6.460e+0
0.277, 2.976e-6, 2.592e-6, 6.480e+0
0.276, 3.058e-6, 2.653e-6, 6.500e+0
0.275, 3.142e-6, 2.716e-6, 6.520e+0
0.274, 3.230e-6, 2.781e-6, 6.540e+0
0.273, 3.313e-6, 2.847e-6, 6.560e+0
0.272, 3.403e-6, 2.915e-6, 6.580e+0
0.271, 3.500e-6, 2.985e-6, 6.600e+0
0.270, 3.593e-6, 3.057e-6, 6.620e+0
0.269, 3.688e-6, 3.131e-6, 6.640e+0
0.268, 3.794e-6, 3.206e-6, 6.660e+0
0.267, 3.893e-6, 3.284e-6, 6.680e+0
0.266, 3.998e-6, 3.364e-6, 6.700e+0
0.265, 4.103e-6, 3.446e-6, 6.720e+0
0.264, 4.214e-6, 3.531e-6, 6.740e+0
0.263, 4.324e-6, 3.617e-6, 6.760e+0
0.262, 4.439e-6, 3.706e-6, 6.780e+0
0.261, 4.560e-6, 3.797e-6, 6.800e+0
0.260, 4.677e-6, 3.891e-6, 6.820e+0
0.259, 4.793e-6, 3.986e-6, 6.840e+0
0.258, 4.920e-6, 4.085e-6, 6.860e+0
0.257, 5.048e-6, 4.186e-6, 6.880e+0
0.256, 5.171e-6, 4.289e-6, 6.900e+0
0.255, 5.299e-6, 4.395e-6, 6.920e+0
0.254, 5.428e-6, 4.504e-6, 6.940e+0
0.253, 5.570e-6, 4.615e-6, 6.960e+0
0.252, 5.710e-6, 4.729e-6, 6.980e+0
0.251, 5.850e-6, 4.846e-6, 7.000e+0
0.250, 5.995e-6, 4.966e-6, 7.020e+0
0.249, 6.145e-6, 5.089e-6, 7.040e+0
0.248, 6.285e-6, 5.215e-6, 7.060e+0
0.247, 6.430e-6, 5.343e-6, 7.080e+0
0.246, 6.580e-6, 5.475e-6, 7.100e+0
0.245, 6.730e-6, 5.610e-6, 7.120e+0
0.244, 6.879e-6, 5.747e-6, 7.140e+0
0.243, 7.045e-6, 5.888e-6, 7.160e+0
0.242, 7.196e-6, 6.032e-6, 7.180e+0
0.241, 7.352e-6, 6.179e-6, 7.200e+0
0.240, 7.510e-6, 6.329e-6, 7.220e+0
0.239, 7.661e-6, 6.483e-6, 7.240e+0
0.238, 7.822e-6, 6.639e-6, 7.260e+0
0.237, 7.982e-6, 6.799e-6, 7.280e+0
0.236, 8.138e-6, 6.961e-6, 7.300e+0
0.235, 8.299e-6, 7.127e-6, 7.320e+0
0.234, 8.460e-6, 7.297e-6, 7.340e+0
0.233, 8.624e-6, 7.469e-6, 7.360e+0
0.232, 8.776e-6, 7.645e-6, 7.380e+0
0.231, 8.930e-6, 7.823e-6, 7.400e+0
0.230, 9.083e-6, 8.005e-6, 7.420e+0
0.229, 9.242e-6, 8.190e-6, 7.440e+0
0.228, 9.400e-6, 8.378e-6, 7.460e+0
0.227, 9.551e-6, 8.569e-6, 7.480e+0
0.226, 9.704e-6, 8.763e-6, 7.500e+0
0.225, 9.854e-6, 8.960e-6, 7.520e+0
0.224, 1.000e-5, 9.160e-6, 7.540e+0
0.223, 1.015e-5, 9.363e-6, 7.560e+0
0.222, 1.029e-5, 9.569e-6, 7.580e+0
0.221, 1.044e-5, 9.777e-6, 7.600e+0
0.220, 1.058e-5, 9.989e-6, 7.620e+0
0.219, 1.071e-5, 1.020e-5, 7.640e+0
0.218, 1.085e-5, 1.042e-5, 7.660e+0
0.217, 1.098e-5, 1.064e-5, 7.680e+0
0.216, 1.111e-5, 1.086e-5, 7.700e+0
0.215, 1.123e-5, 1.109e-5, 7.720e+0
0.214, 1.135e-5, 1.131e-5, 7.740e+0
0.213, 1.147e-5, 1.154e-5, 7.760e+0
0.212, 1.158e-5, 1.177e-5, 7.780e+0
0.211, 1.168e-5, 1.201e-5, 7.800e+0
0.210, 1.180e-5, 1.224e-5, 7.820e+0
0.209, 1.190e-5, 1.248e-5, 7.840e+0
0.208, 1.200e-5, 1.272e-5, 7.860e+0
0.207, 1.209e-5, 1.296e-5, 7.880e+0
0.206, 1.218e-5, 1.321e-5, 7.900e+0
0.205, 1.228e-5, 1.345e-5, 7.920e+0
0.204, 1.238e-5, 1.370e-5, 7.940e+0
0.203, 1.245e-5, 1.395e-5, 7.960e+0
0.202, 1.251e-5, 1.420e-5, 7.980e+0
0.201, 1.257e-5, 1.445e-5, 8.000e+0
0.200, 1.263e-5, 1.470e-5, 8.020e+0
0.199, 1.269e-5, 1.496e-5, 8.040e+0
0.198, 1.275e-5, 1.521e-5, 8.060e+0
0.197, 1.279e-5, 1.547e-5, 8.080e+0
0.196, 1.284e-5, 1.573e-5, 8.100e+0
0.195, 1.288e-5, 1.598e-5, 8.120e+0
0.194, 1.292e-5, 1.624e-5, 8.140e+0
0.193, 1.295e-5, 1.650e-5, 8.160e+0
0.192, 1.298e-5, 1.676e-5, 8.180e+0
0.191, 1.301e-5, 1.702e-5, 8.200e+0
0.190, 1.302e-5, 1.728e-5, 8.220e+0
0.189, 1.304e-5, 1.754e-5, 8.240e+0
0.188, 1.305e-5, 1.780e-5, 8.260e+0
0.187, 1.306e-5, 1.806e-5, 8.280e+0
0.186, 1.307e-5, 1.833e-5, 8.300e+0
0.185, 1.307e-5, 1.859e-5, 8.320e+0
0.184, 1.307e-5, 1.885e-5, 8.340e+0
0.183, 1.307e-5, 1.911e-5, 8.360e+0
0.182, 1.306e-5, 1.937e-5, 8.380e+0
0.181, 1.306e-5, 1.963e-5, 8.400e+0
0.180, 1.304e-5, 1.989e-5, 8.420e+0
0.179, 1.302e-5, 2.015e-5, 8.440e+0
0.178, 1.301e-5, 2.041e-5, 8.460e+0
0.177, 1.299e-5, 2.067e-5, 8.480e+0
0.176, 1.296e-5, 2.093e-5, 8.500e+0
0.175, 1.294e-5, 2.119e-5, 8.520e+0
0.174, 1.291e-5, 2.145e-5, 8.540e+0
0.173, 1.288e-5, 2.171e-5, 8.560e+0
0.172, 1.285e-5, 2.196e-5, 8.580e+0
0.171, 1.281e-5, 2.222e-5, 8.600e+0
0.170, 1.278e-5, 2.248e-5, 8.620e+0
0.169, 1.274e-5, 2.273e-5, 8.640e+0
0.168, 1.271e-5, 2.298e-5, 8.660e+0
0.167, 1.267e-5, 2.324e-5, 8.680e+0
0.166, 1.263e-5, 2.349e-5, 8.700e+0
0.165, 1.258e-5, 2.374e-5, 8.720e+0
0.164, 1.254e-5, 2.399e-5, 8.740e+0
0.163, 1.250e-5, 2.424e-5, 8.760e+0
0.162, 1.245e-5, 2.449e-5, 8.780e+0
0.161, 1.241e-5, 2.474e-5, 8.800e+0
0.160, 1.236e-5, 2.499e-5, 8.820e+0
0.159, 1.231e-5, 2.523e-5, 8.840e+0
0.158, 1.226e-5, 2.548e-5, 8.860e+0
0.157, 1.221e-5, 2.572e-5, 8.880e+0
0.156, 1.216e-5, 2.597e-5, 8.900e+0
0.155, 1.211e-5, 2.621e-5, 8.920e+0
0.154, 1.206e-5, 2.645e-5, 8.940e+0
0.153, 1.201e-5, 2.669e-5, 8.960e+0
0.152, 1.196e-5, 2.693e-5, 8.980e+0
0.151, 1.191e-5, 2.717e-5, 9.000e+0
0.150, 1.186e-5, 2.740e-5, 9.020e+0
0.149, 1.181e-5, 2.764e-5, 9.040e+0
0.148, 1.176e-5, 2.788e-5, 9.060e+0
0.147, 1.171e-5, 2.811e-5, 9.080e+0
0.146, 1.166e-5, 2.834e-5, 9.100e+0
0.145, 1.161e-5, 2.858e-5, 9.120e+0
0.144, 1.156e-5, 2.881e-5, 9.140e+0
0.143, 1.151e-5, 2.904e-5, 9.160e+0
0.142, 1.146e-5, 2.927e-5, 9.180e+0
0.141, 1.141e-5, 2.949e-5, 9.200e+0
0.140, 1.136e-5, 2.972e-5, 9.220e+0
0.139, 1.131e-5, 2.995e-5, 9.240e+0
0.138, 1.126e-5, 3.017e-5, 9.260e+0
0.137, 1.121e-5, 3.040e-5, 9.280e+0
0.136, 1.116e-5, 3.062e-5, 9.300e+0
0.135, 1.111e-5, 3.084e-5, 9.320e+0
0.134, 1.107e-5, 3.106e-5, 9.340e+0
0.133, 1.102e-5, 3.128e-5, 9.360e+0
0.132, 1.097e-5, 3.150e-5, 9.380e+0
0.131, 1.093e-5, 3.172e-5, 9.400e+0
0.130, 1.088e-5, 3.194e-5, 9.420e+0
0.129, 1.084e-5, 3.216e-5, 9.440e+0
0.128, 1.079e-5, 3.237e-5, 9.460e+0
0.127, 1.075e-5, 3.259e-5, 9.480e+0
0.126, 1.070e-5, 3.280e-5, 9.500e+0
0.125, 1.066e-5, 3.301e-5, 9.520e+0
0.124, 1.062e-5, 3.323e-5, 9.540e+0
0.123, 1.058e-5, 3.344e-5, 9.560e+0
0.122, 1.054e-5, 3.365e-5, 9.580e+0
0.121, 1.050e-5, 3.386e-5, 9.600e+0
0.120, 1.046e-5, 3.407e-5, 9.620e+0
0.119, 1.042e-5, 3.428e-5, 9.640e+0
0.118, 1.038e-5, 3.448e-5, 9.660e+0
0.117, 1.034e-5, 3.469e-5, 9.680e+0
0.116, 1.031e-5, 3.490e-5, 9.700e+0
0.115, 1.027e-5, 3.510e-5, 9.720e+0
0.114, 1.023e-5, 3.531e-5, 9.740e+0
0.113, 1.020e-5, 3.551e-5, 9.760e+0
0.112, 1.016e-5, 3.571e-5, 9.780e+0
0.111, 1.013e-5, 3.592e-5, 9.800e+0
0.110, 1.009e-5, 3.612e-5, 9.820e+0
0.109, 1.006e-5, 3.632e-5, 9.840e+0
0.108, 1.003e-5, 3.652e-5, 9.860e+0
0.107, 9.996e-6, 3.672e-5, 9.880e+0
0.106, 9.966e-6, 3.692e-5, 9.900e+0
0.105, 9.936e-6, 3.712e-5, 9.920e+0
0.104, 9.906e-6, 3.732e-5, 9.940e+0
0.103, 9.876e-6, 3.751e-5, 9.960e+0
0.102, 9.848e-6, 3.771e-5, 9.980e+0
0.101, 9.819e-6, 3.791e-5, 1.000e+1
0.100, 9.792e-6, 3.810e-5, 1.002e+1
0.099, 9.765e-6, 3.830e-5, 1.004e+1
0.098, 9.739e-6, 3.849e-5, 1.006e+1
0.097, 9.715e-6, 3.869e-5, 1.008e+1
0.096, 9.688e-6, 3.888e-5, 1.010e+1
0.095, 9.664e-6, 3.907e-5, 1.012e+1
0.094, 9.639e-6, 3.927e-5, 1.014e+1
0.093, 9.617e-6, 3.946e-5, 1.016e+1
0.092, 9.594e-6, 3.965e-5, 1.018e+1
0.091, 9.571e-6, 3.984e-5, 1.020e+1
0.090, 9.549e-6, 4.003e-5, 1.022e+1
0.089, 9.530e-6, 4.022e-5, 1.024e+1
0.088, 9.510e-6, 4.041e-5, 1.026e+1
0.087, 9.489e-6, 4.060e-5, 1.028e+1
0.086, 9.469e-6, 4.079e-5, 1.030e+1
0.085, 9.450e-6, 4.098e-5, 1.032e+1
0.084, 9.432e-6, 4.117e-5, 1.034e+1
0.083, 9.415e-6, 4.136e-5, 1.036e+1
0.082, 9.399e-6, 4.155e-5, 1.038e+1
0.081, 9.382e-6, 4.174e-5, 1.040e+1
0.080, 9.365e-6, 4.192e-5, 1.042e+1
0.079, 9.349e-6, 4.211e-5, 1.044e+1
0.078, 9.334e-6, 4.230e-5, 1.046e+1
0.077, 9.318e-6, 4.248e-5, 1.048e+1
0.076, 9.306e-6, 4.267e-5, 1.050e+1
0.075, 9.291e-6, 4.285e-5, 1.052e+1
0.074, 9.279e-6, 4.304e-5, 1.054e+1
0.073, 9.266e-6, 4.323e-5, 1.056e+1
0.072, 9.255e-6, 4.341e-5, 1.058e+1
0.071, 9.244e-6, 4.360e-5, 1.060e+1
0.070, 9.233e-6, 4.378e-5, 1.062e+1
0.069, 9.223e-6, 4.396e-5, 1.064e+1
0.068, 9.212e-6, 4.415e-5, 1.066e+1
0.067, 9.203e-6, 4.433e-5, 1.068e+1
0.066, 9.195e-6, 4.452e-5, 1.070e+1
0.065, 9.186e-6, 4.470e-5, 1.072e+1
0.064, 9.180e-6, 4.488e-5, 1.074e+1
0.063, 9.172e-6, 4.507e-5, 1.076e+1
0.062, 9.165e-6, 4.525e-5, 1.078e+1
0.061, 9.158e-6, 4.543e-5, 1.080e+1
0.060, 9.153e-6, 4.562e-5, 1.082e+1
0.059, 9.147e-6, 4.580e-5, 1.084e+1
0.058, 9.144e-6, 4.598e-5, 1.086e+1
0.057, 9.139e-6, 4.617e-5, 1.088e+1
0.056, 9.135e-6, 4.635e-5, 1.090e+1
0.055, 9.132e-6, 4.653e-5, 1.092e+1
0.054, 9.130e-6, 4.671e-5, 1.094e+1
0.053, 9.126e-6, 4.690e-5, 1.096e+1
0.052, 9.125e-6, 4.708e-5, 1.098e+1
0.051, 9.120e-6, 4.726e-5, 1.100e+1
0.050, 9.121e-6, 4.744e-5, 1.102e+1
0.049, 9.120e-6, 4.763e-5, 1.104e+1
0.048, 9.121e-6, 4.781e-5, 1.106e+1
0.047, 9.123e-6, 4.799e-5, 1.108e+1
0.046, 9.123e-6, 4.817e-5, 1.110e+1
0.045, 9.125e-6, 4.836e-5, 1.112e+1
0.044, 9.128e-6, 4.854e-5, 1.114e+1
0.043, 9.129e-6, 4.872e-5, 1.116e+1
0.042, 9.134e-6, 4.890e-5, 1.118e+1
0.041, 9.137e-6, 4.909e-5, 1.120e+1
0.040, 9.141e-6, 4.927e-5, 1.122e+1
0.039, 9.147e-6, 4.945e-5, 1.124e+1
0.038, 9.151e-6, 4.964e-5, 1.126e+1
0.037, 9.157e-6, 4.982e-5, 1.128e+1
0.036, 9.163e-6, 5.000e-5, 1.130e+1
0.035, 9.169e-6, 5.019e-5, 1.132e+1
0.034, 9.176e-6, 5.037e-5, 1.134e+1
0.033, 9.184e-6, 5.055e-5, 1.136e+1
0.032, 9.193e-6, 5.074e-5, 1.138e+1
0.031, 9.202e-6, 5.092e-5, 1.140e+1
0.030, 9.210e-6, 5.110e-5, 1.142e+1
0.029, 9.219e-6, 5.129e-5, 1.144e+1
0.028, 9.230e-6, 5.147e-5, 1.146e+1
0.027, 9.241e-6, 5.166e-5, 1.148e+1
0.026, 9.252e-6, 5.184e-5, 1.150e+1
0.025, 9.262e-6, 5.203e-5, 1.152e+1
0.024, 9.275e-6, 5.221e-5, 1.154e+1
0.023, 9.288e-6, 5.240e-5, 1.156e+1
0.022, 9.302e-6, 5.259e-5, 1.158e+1
0.021, 9.317e-6, 5.277e-5, 1.160e+1
0.020, 9.330e-6, 5.296e-5, 1.162e+1
0.019, 9.345e-6, 5.315e-5, 1.164e+1
0.018, 9.360e-6, 5.333e-5, 1.166e+1
0.017, 9.376e-6, 5.352e-5, 1.168e+1
0.016, 9.392e-6, 5.371e-5, 1.170e+1
0.015, 9.409e-6, 5.390e-5, 1.172e+1
0.014, 9.426e-6, 5.408e-5, 1.174e+1
0.013, 9.445e-6, 5.427e-5, 1.176e+1
0.012, 9.463e-6, 5.446e-5, 1.178e+1
0.011, 9.483e-6, 5.465e-5, 1.180e+1
0.010, 9.503e-6, 5.484e-5, 1.182e+1
0.009, 9.522e-6, 5.503e-5, 1.184e+1
0.008, 9.544e-6, 5.522e-5, 1.186e+1
0.007, 9.564e-6, 5.542e-5, 1.188e+1
0.006, 9.586e-6, 5.561e-5, 1.190e+1
0.005, 9.608e-6, 5.580e-5, 1.192e+1
0.004, 9.633e-6, 5.599e-5, 1.194e+1
0.003, 9.656e-6, 5.619e-5, 1.196e+1
0.002, 9.681e-6, 5.638e-5, 1.198e+1
0.001, 9.705e-6, 5.657e-5, 1.200e+1

Segment 2:
0.000, 9.640e-6, 5.677e-5, 1.202e+1
0.001, 9.346e-6, 5.695e-5, 1.204e+1
0.002, 9.178e-6, 5.714e-5, 1.206e+1
0.003, 9.059e-6, 5.732e-5, 1.208e+1
0.004, 8.952e-6, 5.750e-5, 1.210e+1
0.005, 8.854e-6, 5.767e-5, 1.212e+1
0.006, 8.760e-6, 5.785e-5, 1.214e+1
0.007, 8.669e-6, 5.802e-5, 1.216e+1
0.008, 8.584e-6, 5.819e-5, 1.218e+1
0.009, 8.501e-6, 5.836e-5, 1.220e+1
0.010, 8.422e-6, 5.853e-5, 1.222e+1
0.011, 8.345e-6, 5.870e-5, 1.224e+1
0.012, 8.269e-6, 5.886e-5, 1.226e+1
0.013, 8.197e-6, 5.903e-5, 1.228e+1
0.014, 8.127e-6, 5.919e-5, 1.230e+1
0.015, 8.059e-6, 5.935e-5, 1.232e+1
0.016, 7.993e-6, 5.951e-5, 1.234e+1
0.017, 7.928e-6, 5.967e-5, 1.236e+1
0.018, 7.865e-6, 5.983e-5, 1.238e+1
0.019, 7.803e-6, 5.998e-5, 1.240e+1
0.020, 7.743e-6, 6.014e-5, 1.242e+1
0.021, 7.684e-6, 6.029e-5, 1.244e+1
0.022, 7.626e-6, 6.044e-5, 1.246e+1
0.023, 7.570e-6, 6.060e-5, 1.248e+1
0.024, 7.515e-6, 6.075e-5, 1.250e+1
0.025, 7.461e-6, 6.090e-5, 1.252e+1
0.026, 7.410e-6, 6.104e-5, 1.254e+1
0.027, 7.358e-6, 6.119e-5, 1.256e+1
0.028, 7.306e-6, 6.134e-5, 1.258e+1
0.029, 7.257e-6, 6.148e-5, 1.260e+1
0.030, 7.208e-6, 6.163e-5, 1.262e+1
0.031, 7.160e-6, 6.177e-5, 1.264e+1
0.032, 7.113e-6, 6.191e-5, 1.266e+1
0.033, 7.066e-6, 6.205e-5, 1.268e+1
0.034, 7.020e-6, 6.219e-5, 1.270e+1
0.035, 6.975e-6, 6.233e-5, 1.272e+1
0.036, 6.932e-6, 6.247e-5, 1.274e+1
0.037, 6.890e-6, 6.261e-5, 1.276e+1
0.038, 6.846e-6, 6.275e-5, 1.278e+1
0.039, 6.803e-6, 6.288e-5, 1.280e+1
0.040, 6.764e-6, 6.302e-5, 1.282e+1
0.041, 6.723e-6, 6.315e-5, 1.284e+1
0.042, 6.684e-6, 6.329e-5, 1.286e+1
0.043, 6.645e-6, 6.342e-5, 1.288e+1
0.044, 6.605e-6, 6.355e-5, 1.290e+1
0.045, 6.567e-6, 6.368e-5, 1.292e+1
0.046, 6.529e-6, 6.381e-5, 1.294e+1
0.047, 6.492e-6, 6.394e-5, 1.296e+1
0.048, 6.456e-6, 6.407e-5, 1.298e+1
0.049, 6.420e-6, 6.420e-5, 1.300e+1
0.050, 6.384e-6, 6.433e-5, 1.302e+1
0.051, 6.351e-6, 6.446e-5, 1.304e+1
0.052, 6.317e-6, 6.458e-5, 1.306e+1
0.053, 6.281e-6, 6.471e-5, 1.308e+1
0.054, 6.247e-6, 6.483e-5, 1.310e+1
0.055, 6.214e-6, 6.496e-5, 1.312e+1
0.056, 6.181e-6, 6.508e-5, 1.314e+1
0.057, 6.148e-6, 6.520e-5, 1.316e+1
0.058, 6.115e-6, 6.533e-5, 1.318e+1
0.059, 6.083e-6, 6.545e-5, 1.320e+1
0.060, 6.051e-6, 6.557e-5, 1.322e+1
0.061, 6.020e-6, 6.569e-5, 1.324e+1
0.062, 5.990e-6, 6.581e-5, 1.326e+1
0.063, 5.958e-6, 6.593e-5, 1.328e+1
0.064, 5.927e-6, 6.605e-5, 1.330e+1
0.065, 5.897e-6, 6.616e-5, 1.332e+1
0.066, 5.868e-6, 6.628e-5, 1.334e+1
0.067, 5.838e-6, 6.640e-5, 1.336e+1
0.068, 5.809e-6, 6.651e-5, 1.338e+1
0.069, 5.779e-6, 6.663e-5, 1.340e+1
0.070, 5.748e-6, 6.674e-5, 1.342e+1
0.071, 5.721e-6, 6.686e-5, 1.344e+1
0.072, 5.692e-6, 6.697e-5, 1.346e+1
0.073, 5.663e-6, 6.709e-5, 1.348e+1
0.074, 5.636e-6, 6.720e-5, 1.350e+1
0.075, 5.608e-6, 6.731e-5, 1.352e+1
0.076, 5.580e-6, 6.742e-5, 1.354e+1
0.077, 5.553e-6, 6.753e-5, 1.356e+1
0.078, 5.525e-6, 6.764e-5, 1.358e+1
0.079, 5.497e-6, 6.775e-5, 1.360e+1
0.080, 5.470e-6, 6.786e-5, 1.362e+1
0.081, 5.441e-6, 6.797e-5, 1.364e+1
0.082, 5.414e-6, 6.808e-5, 1.366e+1
0.083, 5.386e-6, 6.819e-5, 1.368e+1
0.084, 5.357e-6, 6.830e-5, 1.370e+1
0.085, 5.332e-6, 6.840e-5, 1.372e+1
0.086, 5.304e-6, 6.851e-5, 1.374e+1
0.087, 5.277e-6, 6.861e-5, 1.376e+1
0.088, 5.251e-6, 6.872e-5, 1.378e+1
0.089, 5.223e-6, 6.882e-5, 1.380e+1
0.090, 5.194e-6, 6.893e-5, 1.382e+1
0.091, 5.169e-6, 6.903e-5, 1.384e+1
0.092, 5.141e-6, 6.913e-5, 1.386e+1
0.093, 5.113e-6, 6.924e-5, 1.388e+1
0.094, 5.086e-6, 6.934e-5, 1.390e+1
0.095, 5.058e-6, 6.944e-5, 1.392e+1
0.096, 5.031e-6, 6.954e-5, 1.394e+1
0.097, 5.002e-6, 6.964e-5, 1.396e+1
0.098, 4.975e-6, 6.974e-5, 1.398e+1
0.099, 4.946e-6, 6.984e-5, 1.400e+1
0.100, 4.916e-6, 6.994e-5, 1.402e+1
0.101, 4.889e-6, 7.003e-5, 1.404e+1
0.102, 4.859e-6, 7.013e-5, 1.406e+1
0.103, 4.830e-6, 7.023e-5, 1.408e+1
0.104, 4.802e-6, 7.032e-5, 1.410e+1
0.105, 4.771e-6, 7.042e-5, 1.412e+1
0.106, 4.743e-6, 7.051e-5, 1.414e+1
0.107, 4.711e-6, 7.061e-5, 1.416e+1
0.108, 4.681e-6, 7.070e-5, 1.418e+1
0.109, 4.651e-6, 7.079e-5, 1.420e+1
0.110, 4.620e-6, 7.089e-5, 1.422e+1
0.111, 4.589e-6, 7.098e-5, 1.424e+1
0.112, 4.556e-6, 7.107e-5, 1.426e+1
0.113, 4.522e-6, 7.116e-5, 1.428e+1
0.114, 4.491e-6, 7.125e-5, 1.430e+1
0.115, 4.458e-6, 7.134e-5, 1.432e+1
0.116, 4.424e-6, 7.143e-5, 1.434e+1
0.117, 4.389e-6, 7.152e-5, 1.436e+1
0.118, 4.353e-6, 7.160e-5, 1.438e+1
0.119, 4.319e-6, 7.169e-5, 1.440e+1
0.120, 4.284e-6, 7.177e-5, 1.442e+1
0.121, 4.247e-6, 7.186e-5, 1.444e+1
0.122, 4.210e-6, 7.194e-5, 1.446e+1
0.123, 4.171e-6, 7.203e-5, 1.448e+1
0.124, 4.133e-6, 7.211e-5, 1.450e+1
0.125, 4.092e-6, 7.219e-5, 1.452e+1
0.126, 4.053e-6, 7.227e-5, 1.454e+1
0.127, 4.012e-6, 7.235e-5, 1.456e+1
0.128, 3.972e-6, 7.243e-5, 1.458e+1
0.129, 3.929e-6, 7.251e-5, 1.460e+1
0.130, 3.884e-6, 7.259e-5, 1.462e+1
0.131, 3.841e-6, 7.267e-5, 1.464e+1
0.132, 3.794e-6, 7.274e-5, 1.466e+1
0.133, 3.749e-6, 7.282e-5, 1.468e+1
0.134, 3.699e-6, 7.289e-5, 1.470e+1
0.135, 3.650e-6, 7.296e-5, 1.472e+1
0.136, 3.602e-6, 7.304e-5, 1.474e+1
0.137, 3.550e-6, 7.311e-5, 1.476e+1
0.138, 3.498e-6, 7.318e-5, 1.478e+1
0.139, 3.446e-6, 7.325e-5, 1.480e+1
0.140, 3.392e-6, 7.331e-5, 1.482e+1
0.141, 3.335e-6, 7.338e-5, 1.484e+1
0.142, 3.276e-6, 7.345e-5, 1.486e+1
0.143, 3.219e-6, 7.351e-5, 1.488e+1
0.144, 3.157e-6, 7.357e-5, 1.490e+1
0.145, 3.098e-6, 7.363e-5, 1.492e+1
0.146, 3.035e-6, 7.370e-5, 1.494e+1
0.147, 2.971e-6, 7.375e-5, 1.496e+1
0.148, 2.905e-6, 7.381e-5, 1.498e+1
0.149, 2.838e-6, 7.387e-5, 1.500e+1
0.150, 2.766e-6, 7.392e-5, 1.502e+1
0.151, 2.694e-6, 7.398e-5, 1.504e+1
0.152, 2.624e-6, 7.403e-5, 1.506e+1
0.153, 2.547e-6, 7.408e-5, 1.508e+1
0.154, 2.477e-6, 7.413e-5, 1.510e+1
0.155, 2.398e-6, 7.418e-5, 1.512e+1
0.156, 2.316e-6, 7.423e-5, 1.514e+1
0.157, 2.232e-6, 7.427e-5, 1.516e+1
0.158, 2.145e-6, 7.431e-5, 1.518e+1
0.159, 2.061e-6, 7.435e-5, 1.520e+1
0.160, 1.970e-6, 7.439e-5, 1.522e+1
0.161, 1.877e-6, 7.443e-5, 1.524e+1
0.162, 1.787e-6, 7.447e-5, 1.526e+1
0.163, 1.692e-6, 7.450e-5, 1.528e+1
0.164, 1.595e-6, 7.453e-5, 1.530e+1
0.165, 1.497e-6, 7.456e-5, 1.532e+1
0.166, 1.392e-6, 7.459e-5, 1.534e+1
0.167, 1.290e-6, 7.462e-5, 1.536e+1
0.168, 1.178e-6, 7.464e-5, 1.538e+1
0.169, 1.068e-6, 7.466e-5, 1.540e+1
0.170, 9.559e-7, 7.468e-5, 1.542e+1
0.171, 8.403e-7, 7.470e-5, 1.544e+1
0.172, 7.255e-7, 7.471e-5, 1.546e+1
0.173, 6.089e-7, 7.472e-5, 1.548e+1
0.174, 4.894e-7, 7.473e-5, 1.550e+1
0.175, 3.641e-7, 7.474e-5, 1.552e+1
0.176, 2.381e-7, 7.475e-5, 1.554e+1
0.177, 1.072e-7, 7.475e-5, 1.556e+1
0.178, -1.992e-8, 7.475e-5, 1.558e+1
0.179, -1.563e-7, 7.474e-5, 1.560e+1
0.180, -2.857e-7, 7.474e-5, 1.562e+1
0.181, -4.246e-7, 7.473e-5, 1.564e+1
0.182, -5.688e-7, 7.472e-5, 1.566e+1
0.183, -7.090e-7, 7.471e-5, 1.568e+1
0.184, -8.535e-7, 7.469e-5, 1.570e+1
0.185, -1.002e-6, 7.467e-5, 1.572e+1
0.186, -1.150e-6, 7.464e-5, 1.574e+1
0.187, -1.303e-6, 7.462e-5, 1.576e+1
0.188, -1.450e-6, 7.459e-5, 1.578e+1
0.189, -1.606e-6, 7.456e-5, 1.580e+1
0.190, -1.766e-6, 7.452e-5, 1.582e+1
0.191, -1.921e-6, 7.448e-5, 1.584e+1
0.192, -2.083e-6, 7.444e-5, 1.586e+1
0.193, -2.245e-6, 7.440e-5, 1.588e+1
0.194, -2.404e-6, 7.435e-5, 1.590e+1
0.195, -2.564e-6, 7.430e-5, 1.592e+1
0.196, -2.725e-6, 7.424e-5, 1.594e+1
0.197, -2.890e-6, 7.419e-5, 1.596e+1
0.198, -3.056e-6, 7.412e-5, 1.598e+1
0.199, -3.225e-6, 7.406e-5, 1.600e+1
0.200, -3.389e-6, 7.399e-5, 1.602e+1
0.201, -3.557e-6, 7.392e-5, 1.604e+1
0.202, -3.724e-6, 7.385e-5, 1.606e+1
0.203, -3.890e-6, 7.377e-5, 1.608e+1
0.204, -4.049e-6, 7.369e-5, 1.610e+1
0.205, -4.243e-6, 7.360e-5, 1.612e+1
0.206, -4.410e-6, 7.351e-5, 1.614e+1
0.207, -4.565e-6, 7.342e-5, 1.616e+1
0.208, -4.725e-6, 7.333e-5, 1.618e+1
0.209, -4.895e-6, 7.323e-5, 1.620e+1
0.210, -5.041e-6, 7.313e-5, 1.622e+1
0.211, -5.200e-6, 7.303e-5, 1.624e+1
0.212, -5.358e-6, 7.292e-5, 1.626e+1
0.213, -5.510e-6, 7.281e-5, 1.628e+1
0.214, -5.665e-6, 7.270e-5, 1.630e+1
0.215, -5.814e-6, 7.258e-5, 1.632e+1
0.216, -5.963e-6, 7.246e-5, 1.634e+1
0.217, -6.105e-6, 7.234e-5, 1.636e+1
0.218, -6.246e-6, 7.221e-5, 1.638e+1
0.219, -6.390e-6, 7.209e-5, 1.640e+1
0.220, -6.527e-6, 7.195e-5, 1.642e+1
0.221, -6.654e-6, 7.182e-5, 1.644e+1
0.222, -6.776e-6, 7.169e-5, 1.646e+1
0.223, -6.902e-6, 7.155e-5, 1.648e+1
0.224, -7.026e-6, 7.141e-5, 1.650e+1
0.225, -7.144e-6, 7.126e-5, 1.652e+1
0.226, -7.253e-6, 7.112e-5, 1.654e+1
0.227, -7.364e-6, 7.097e-5, 1.656e+1
0.228, -7.469e-6, 7.082e-5, 1.658e+1
0.229, -7.569e-6, 7.067e-5, 1.660e+1
0.230, -7.666e-6, 7.052e-5, 1.662e+1
0.231, -7.748e-6, 7.036e-5, 1.664e+1
0.232, -7.835e-6, 7.021e-5, 1.666e+1
0.233, -7.920e-6, 7.005e-5, 1.668e+1
0.234, -8.001e-6, 6.989e-5, 1.670e+1
0.235, -8.079e-6, 6.973e-5, 1.672e+1
0.236, -8.136e-6, 6.956e-5, 1.674e+1
0.237, -8.208e-6, 6.940e-5, 1.676e+1
0.238, -8.271e-6, 6.923e-5, 1.678e+1
0.239, -8.320e-6, 6.907e-5, 1.680e+1
0.240, -8.375e-6, 6.890e-5, 1.682e+1
0.241, -8.417e-6, 6.873e-5, 1.684e+1
0.242, -8.454e-6, 6.856e-5, 1.686e+1
0.243, -8.498e-6, 6.839e-5, 1.688e+1
0.244, -8.528e-6, 6.822e-5, 1.690e+1
0.245, -8.555e-6, 6.805e-5, 1.692e+1
0.246, -8.589e-6, 6.788e-5, 1.694e+1
0.247, -8.606e-6, 6.771e-5, 1.696e+1
0.248, -8.618e-6, 6.754e-5, 1.698e+1
0.249, -8.631e-6, 6.736e-5, 1.700e+1
0.250, -8.647e-6, 6.719e-5, 1.702e+1
0.251, -8.654e-6, 6.702e-5, 1.704e+1
0.252, -8.647e-6, 6.684e-5, 1.706e+1
0.253, -8.650e-6, 6.667e-5, 1.708e+1
0.254, -8.646e-6, 6.650e-5, 1.710e+1
0.255, -8.637e-6, 6.633e-5, 1.712e+1
0.256, -8.621e-6, 6.615e-5, 1.714e+1
0.257, -8.602e-6, 6.598e-5, 1.716e+1
0.258, -8.587e-6, 6.581e-5, 1.718e+1
0.259, -8.567e-6, 6.564e-5, 1.720e+1
0.260, -8.544e-6, 6.547e-5, 1.722e+1
0.261, -8.518e-6, 6.530e-5, 1.724e+1
0.262, -8.493e-6, 6.513e-5, 1.726e+1
0.263, -8.466e-6, 6.496e-5, 1.728e+1
0.264, -8.434e-6, 6.479e-5, 1.730e+1
0.265, -8.402e-6, 6.462e-5, 1.732e+1
0.266, -8.365e-6, 6.445e-5, 1.734e+1
0.267, -8.329e-6, 6.429e-5, 1.736e+1
0.268, -8.288e-6, 6.412e-5, 1.738e+1
0.269, -8.246e-6, 6.396e-5, 1.740e+1
0.270, -8.206e-6, 6.379e-5, 1.742e+1
0.271, -8.163e-6, 6.363e-5, 1.744e+1
0.272, -8.118e-6, 6.347e-5, 1.746e+1
0.273, -8.072e-6, 6.330e-5, 1.748e+1
0.274, -8.022e-6, 6.314e-5, 1.750e+1
0.275, -7.977e-6, 6.298e-5, 1.752e+1
0.276, -7.928e-6, 6.283e-5, 1.754e+1
0.277, -7.877e-6, 6.267e-5, 1.756e+1
0.278, -7.826e-6, 6.251e-5, 1.758e+1
0.279, -7.774e-6, 6.236e-5, 1.760e+1
0.280, -7.724e-6, 6.220e-5, 1.762e+1
0.281, -7.671e-6, 6.205e-5, 1.764e+1
0.282, -7.614e-6, 6.190e-5, 1.766e+1
0.283, -7.563e-6, 6.175e-5, 1.768e+1
0.284, -7.511e-6, 6.159e-5, 1.770e+1
0.285, -7.457e-6, 6.145e-5, 1.772e+1
0.286, -7.404e-6, 6.130e-5, 1.774e+1
0.287, -7.348e-6, 6.115e-5, 1.776e+1
0.288, -7.296e-6, 6.100e-5, 1.778e+1
0.289, -7.242e-6, 6.086e-5, 1.780e+1
0.290, -7.187e-6, 6.072e-5, 1.782e+1
0.291, -7.135e-6, 6.057e-5, 1.784e+1
0.292, -7.080e-6, 6.043e-5, 1.786e+1
0.293, -7.024e-6, 6.029e-5, 1.788e+1
0.294, -6.972e-6, 6.015e-5, 1.790e+1
0.295, -6.917e-6, 6.001e-5, 1.792e+1
0.296, -6.864e-6, 5.988e-5, 1.794e+1
0.297, -6.811e-6, 5.974e-5, 1.796e+1
0.298, -6.759e-6, 5.960e-5, 1.798e+1
0.299, -6.705e-6, 5.947e-5, 1.800e+1
0.300, -6.654e-6, 5.934e-5, 1.802e+1
0.301, -6.602e-6, 5.921e-5, 1.804e+1
0.302, -6.550e-6, 5.907e-5, 1.806e+1
0.303, -6.498e-6, 5.894e-5, 1.808e+1
0.304, -6.448e-6, 5.882e-5, 1.810e+1
0.305, -6.398e-6, 5.869e-5, 1.812e+1
0.306, -6.349e-6, 5.856e-5, 1.814e+1
0.307, -6.300e-6, 5.843e-5, 1.816e+1
0.308, -6.251e-6, 5.831e-5, 1.818e+1
0.309, -6.201e-6, 5.819e-5, 1.820e+1
0.310, -6.155e-6, 5.806e-5, 1.822e+1
0.311, -6.106e-6, 5.794e-5, 1.824e+1
0.312, -6.059e-6, 5.782e-5, 1.826e+1
0.313, -6.013e-6, 5.770e-5, 1.828e+1
0.314, -5.968e-6, 5.758e-5, 1.830e+1
0.315, -5.921e-6, 5.746e-5, 1.832e+1
0.316, -5.877e-6, 5.734e-5, 1.834e+1
0.317, -5.833e-6, 5.723e-5, 1.836e+1
0.318, -5.790e-6, 5.711e-5, 1.838e+1
0.319, -5.745e-6, 5.700e-5, 1.840e+1
0.320, -5.702e-6, 5.688e-5, 1.842e+1
0.321, -5.660e-6, 5.677e-5, 1.844e+1
0.322, -5.618e-6, 5.666e-5, 1.846e+1
0.323, -5.577e-6, 5.655e-5, 1.848e+1
0.324, -5.536e-6, 5.643e-5, 1.850e+1
0.325, -5.494e-6, 5.632e-5, 1.852e+1
0.326, -5.456e-6, 5.622e-5, 1.854e+1
0.327, -5.417e-6, 5.611e-5, 1.856e+1
0.328, -5.377e-6, 5.600e-5, 1.858e+1
0.329, -5.340e-6, 5.589e-5, 1.860e+1
0.330, -5.301e-6, 5.579e-5, 1.862e+1
0.331, -5.264e-6, 5.568e-5, 1.864e+1
0.332, -5.228e-6, 5.558e-5, 1.866e+1
0.333, -5.189e-6, 5.547e-5, 1.868e+1
0.334, -5.155e-6, 5.537e-5, 1.870e+1
0.335, -5.118e-6, 5.527e-5, 1.872e+1
0.336, -5.084e-6, 5.517e-5, 1.874e+1
0.337, -5.051e-6, 5.507e-5, 1.876e+1
0.338, -5.015e-6, 5.496e-5, 1.878e+1
0.339, -4.982e-6, 5.487e-5, 1.880e+1
0.340, -4.950e-6, 5.477e-5, 1.882e+1
0.341, -4.917e-6, 5.467e-5, 1.884e+1
0.342, -4.886e-6, 5.457e-5, 1.886e+1
0.343, -4.853e-6, 5.447e-5, 1.888e+1
0.344, -4.821e-6, 5.438e-5, 1.890e+1
0.345, -4.791e-6, 5.428e-5, 1.892e+1
0.346, -4.761e-6, 5.419e-5, 1.894e+1
0.347, -4.730e-6, 5.409e-5, 1.896e+1
0.348, -4.700e-6, 5.400e-5, 1.898e+1
0.349, -4.671e-6, 5.390e-5, 1.900e+1
0.350, -4.643e-6, 5.381e-5, 1.902e+1
0.351, -4.613e-6, 5.372e-5, 1.904e+1
0.352, -4.586e-6, 5.363e-5, 1.906e+1
0.353, -4.558e-6, 5.354e-5, 1.908e+1
0.354, -4.531e-6, 5.345e-5, 1.910e+1
0.355, -4.504e-6, 5.335e-5, 1.912e+1
0.356, -4.477e-6, 5.327e-5, 1.914e+1
0.357, -4.451e-6, 5.318e-5, 1.916e+1
0.358, -4.425e-6, 5.309e-5, 1.918e+1
0.359, -4.396e-6, 5.300e-5, 1.920e+1
0.360, -4.373e-6, 5.291e-5, 1.922e+1
0.361, -4.349e-6, 5.283e-5, 1.924e+1
0.362, -4.323e-6, 5.274e-5, 1.926e+1
0.363, -4.300e-6, 5.265e-5, 1.928e+1
0.364, -4.276e-6, 5.257e-5, 1.930e+1
0.365, -4.253e-6, 5.248e-5, 1.932e+1
0.366, -4.230e-6, 5.240e-5, 1.934e+1
0.367, -4.206e-6, 5.231e-5, 1.936e+1
0.368, -4.184e-6, 5.223e-5, 1.938e+1
0.369, -4.161e-6, 5.215e-5, 1.940e+1
0.370, -4.139e-6, 5.206e-5, 1.942e+1
0.371, -4.118e-6, 5.198e-5, 1.944e+1
0.372, -4.096e-6, 5.190e-5, 1.946e+1
0.373, -4.075e-6, 5.182e-5, 1.948e+1
0.374, -4.054e-6, 5.174e-5, 1.950e+1
0.375, -4.033e-6, 5.166e-5, 1.952e+1
0.376, -4.013e-6, 5.158e-5, 1.954e+1
0.377, -3.992e-6, 5.150e-5, 1.956e+1
0.378, -3.972e-6, 5.142e-5, 1.958e+1
0.379, -3.954e-6, 5.134e-5, 1.960e+1
0.380, -3.934e-6, 5.126e-5, 1.962e+1
0.381, -3.914e-6, 5.118e-5, 1.964e+1
0.382, -3.896e-6, 5.110e-5, 1.966e+1
0.383, -3.876e-6, 5.103e-5, 1.968e+1
0.384, -3.856e-6, 5.095e-5, 1.970e+1
0.385, -3.840e-6, 5.087e-5, 1.972e+1
0.386, -3.821e-6, 5.080e-5, 1.974e+1
0.387, -3.804e-6, 5.072e-5, 1.976e+1
0.388, -3.786e-6, 5.064e-5, 1.978e+1
0.389, -3.768e-6, 5.057e-5, 1.980e+1
0.390, -3.752e-6, 5.049e-5, 1.982e+1
0.391, -3.736e-6, 5.042e-5, 1.984e+1
0.392, -3.718e-6, 5.034e-5, 1.986e+1
0.393, -3.703e-6, 5.027e-5, 1.988e+1
0.394, -3.686e-6, 5.020e-5, 1.990e+1
0.395, -3.670e-6, 5.012e-5, 1.992e+1
0.396, -3.655e-6, 5.005e-5, 1.994e+1
0.397, -3.639e-6, 4.998e-5, 1.996e+1
0.398, -3.624e-6, 4.990e-5, 1.998e+1
0.399, -3.608e-6, 4.983e-5, 2.000e+1
0.400, -3.592e-6, 4.976e-5, 2.002e+1
0.401, -3.578e-6, 4.969e-5, 2.004e+1
0.402, -3.562e-6, 4.962e-5, 2.006e+1
0.403, -3.549e-6, 4.955e-5, 2.008e+1
0.404, -3.535e-6, 4.948e-5, 2.010e+1
0.405, -3.520e-6, 4.941e-5, 2.012e+1
0.406, -3.507e-6, 4.934e-5, 2.014e+1
0.407, -3.493e-6, 4.927e-5, 2.016e+1
0.408, -3.480e-6, 4.920e-5, 2.018e+1
0.409, -3.466e-6, 4.913e-5, 2.020e+1
0.410, -3.441e-6, 4.906e-5, 2.022e+1
0.411, -3.436e-6, 4.899e-5, 2.024e+1
0.412, -3.424e-6, 4.892e-5, 2.026e+1
0.413, -3.412e-6, 4.885e-5, 2.028e+1
0.414, -3.399e-6, 4.878e-5, 2.030e+1
0.415, -3.386e-6, 4.872e-5, 2.032e+1
0.416, -3.374e-6, 4.865e-5, 2.034e+1
0.417, -3.363e-6, 4.858e-5, 2.036e+1
0.418, -3.350e-6, 4.851e-5, 2.038e+1
0.419, -3.338e-6, 4.845e-5, 2.040e+1
0.420, -3.326e-6, 4.838e-5, 2.042e+1
0.421, -3.314e-6, 4.832e-5, 2.044e+1
0.422, -3.304e-6, 4.825e-5, 2.046e+1
0.423, -3.293e-6, 4.818e-5, 2.048e+1
0.424, -3.280e-6, 4.812e-5, 2.050e+1
0.425, -3.271e-6, 4.805e-5, 2.052e+1
0.426, -3.260e-6, 4.799e-5, 2.054e+1
0.427, -3.247e-6, 4.792e-5, 2.056e+1
0.428, -3.237e-6, 4.786e-5, 2.058e+1
0.429, -3.225e-6, 4.779e-5, 2.060e+1
0.430, -3.215e-6, 4.773e-5, 2.062e+1
0.431, -3.207e-6, 4.766e-5, 2.064e+1
0.432, -3.195e-6, 4.760e-5, 2.066e+1
0.433, -3.185e-6, 4.754e-5, 2.068e+1
0.434, -3.174e-6, 4.747e-5, 2.070e+1
0.435, -3.164e-6, 4.741e-5, 2.072e+1
0.436, -3.155e-6, 4.735e-5, 2.074e+1
0.437, -3.145e-6, 4.728e-5, 2.076e+1
0.438, -3.136e-6, 4.722e-5, 2.078e+1
0.439, -3.127e-6, 4.716e-5, 2.080e+1
0.440, -3.118e-6, 4.710e-5, 2.082e+1
0.441, -3.110e-6, 4.703e-5, 2.084e+1
0.442, -3.100e-6, 4.697e-5, 2.086e+1
0.443, -3.091e-6, 4.691e-5, 2.088e+1
0.444, -3.082e-6, 4.685e-5, 2.090e+1
0.445, -3.073e-6, 4.679e-5, 2.092e+1
0.446, -3.064e-6, 4.673e-5, 2.094e+1
0.447, -3.056e-6, 4.666e-5, 2.096e+1
0.448, -3.049e-6, 4.660e-5, 2.098e+1
0.449, -3.041e-6, 4.654e-5, 2.100e+1
0.450, -3.032e-6, 4.648e-5, 2.102e+1
0.451, -3.024e-6, 4.642e-5, 2.104e+1
0.452, -3.017e-6, 4.636e-5, 2.106e+1
0.453, -3.010e-6, 4.630e-5, 2.108e+1
0.454, -3.002e-6, 4.624e-5, 2.110e+1
0.455, -2.995e-6, 4.618e-5, 2.112e+1
0.456, -2.988e-6, 4.612e-5, 2.114e+1
0.457, -2.980e-6, 4.606e-5, 2.116e+1
0.458, -2.973e-6, 4.600e-5, 2.118e+1
0.459, -2.966e-6, 4.594e-5, 2.120e+1
0.460, -2.958e-6, 4.588e-5, 2.122e+1
0.461, -2.949e-6, 4.583e-5, 2.124e+1
0.462, -2.944e-6, 4.577e-5, 2.126e+1
0.463, -2.938e-6, 4.571e-5, 2.128e+1
0.464, -2.932e-6, 4.565e-5, 2.130e+1
0.465, -2.925e-6, 4.559e-5, 2.132e+1
0.466, -2.919e-6, 4.553e-5, 2.134e+1
0.467, -2.914e-6, 4.547e-5, 2.136e+1
0.468, -2.907e-6, 4.542e-5, 2.138e+1
0.469, -2.901e-6, 4.536e-5, 2.140e+1
0.470, -2.895e-6, 4.530e-5, 2.142e+1
0.471, -2.889e-6, 4.524e-5, 2.144e+1
0.472, -2.884e-6, 4.518e-5, 2.146e+1
0.473, -2.879e-6, 4.513e-5, 2.148e+1
0.474, -2.873e-6, 4.507e-5, 2.150e+1
0.475, -2.868e-6, 4.501e-5, 2.152e+1
0.476, -2.863e-6, 4.495e-5, 2.154e+1
0.477, -2.857e-6, 4.490e-5, 2.156e+1
0.478, -2.852e-6, 4.484e-5, 2.158e+1
0.479, -2.848e-6, 4.478e-5, 2.160e+1
0.480, -2.843e-6, 4.473e-5, 2.162e+1
0.481, -2.838e-6, 4.467e-5, 2.164e+1
0.482, -2.833e-6, 4.461e-5, 2.166e+1
0.483, -2.829e-6, 4.456e-5, 2.168e+1
0.484, -2.826e-6, 4.450e-5, 2.170e+1
0.485, -2.820e-6, 4.444e-5, 2.172e+1
0.486, -2.816e-6, 4.439e-5, 2.174e+1
0.487, -2.812e-6, 4.433e-5, 2.176e+1
0.488, -2.809e-6, 4.428e-5, 2.178e+1
0.489, -2.804e-6, 4.422e-5, 2.180e+1
0.490, -2.801e-6, 4.416e-5, 2.182e+1
0.491, -2.797e-6, 4.411e-5, 2.184e+1
0.492, -2.795e-6, 4.405e-5, 2.186e+1
0.493, -2.790e-6, 4.400e-5, 2.188e+1
0.494, -2.788e-6, 4.394e-5, 2.190e+1
0.495, -2.784e-6, 4.388e-5, 2.192e+1
0.496, -2.781e-6, 4.383e-5, 2.194e+1
0.497, -2.778e-6, 4.377e-5, 2.196e+1
0.498, -2.776e-6, 4.372e-5, 2.198e+1
0.499, -2.774e-6, 4.366e-5, 2.200e+1
0.500, -2.770e-6, 4.361e-5, 2.202e+1
0.501, -2.767e-6, 4.355e-5, 2.204e+1
0.502, -2.765e-6, 4.350e-5, 2.206e+1
0.503, -2.763e-6, 4.344e-5, 2.208e+1
0.504, -2.761e-6, 4.339e-5, 2.210e+1
0.505, -2.761e-6, 4.333e-5, 2.212e+1
0.506, -2.757e-6, 4.327e-5, 2.214e+1
0.507, -2.755e-6, 4.322e-5, 2.216e+1
0.508, -2.754e-6, 4.316e-5, 2.218e+1
0.509, -2.753e-6, 4.311e-5, 2.220e+1
0.510, -2.751e-6, 4.305e-5, 2.222e+1
0.511, -2.749e-6, 4.300e-5, 2.224e+1
0.512, -2.749e-6, 4.294e-5, 2.226e+1
0.513, -2.748e-6, 4.289e-5, 2.228e+1
0.514, -2.746e-6, 4.283e-5, 2.230e+1
0.515, -2.746e-6, 4.278e-5, 2.232e+1
0.516, -2.745e-6, 4.272e-5, 2.234e+1
0.517, -2.743e-6, 4.267e-5, 2.236e+1
0.518, -2.743e-6, 4.262e-5, 2.238e+1
0.519, -2.744e-6, 4.256e-5, 2.240e+1
0.520, -2.743e-6, 4.251e-5, 2.242e+1
0.521, -2.743e-6, 4.245e-5, 2.244e+1
0.522, -2.742e-6, 4.240e-5, 2.246e+1
0.523, -2.742e-6, 4.234e-5, 2.248e+1
0.524, -2.743e-6, 4.229e-5, 2.250e+1
0.525, -2.742e-6, 4.223e-5, 2.252e+1
0.526, -2.744e-6, 4.218e-5, 2.254e+1
0.527, -2.744e-6, 4.212e-5, 2.256e+1
0.528, -2.744e-6, 4.207e-5, 2.258e+1
0.529, -2.744e-6, 4.201e-5, 2.260e+1
0.530, -2.745e-6, 4.196e-5, 2.262e+1
0.531, -2.746e-6, 4.190e-5, 2.264e+1
0.532, -2.748e-6, 4.185e-5, 2.266e+1
0.533, -2.749e-6, 4.179e-5, 2.268e+1
0.534, -2.749e-6, 4.174e-5, 2.270e+1
0.535, -2.750e-6, 4.168e-5, 2.272e+1
0.536, -2.752e-6, 4.163e-5, 2.274e+1
0.537, -2.753e-6, 4.157e-5, 2.276e+1
0.538, -2.752e-6, 4.152e-5, 2.278e+1
0.539, -2.756e-6, 4.146e-5, 2.280e+1
0.540, -2.759e-6, 4.141e-5, 2.282e+1
0.541, -2.760e-6, 4.135e-5, 2.284e+1
0.542, -2.762e-6, 4.130e-5, 2.286e+1
0.543, -2.764e-6, 4.124e-5, 2.288e+1
0.544, -2.767e-6, 4.119e-5, 2.290e+1
0.545, -2.770e-6, 4.113e-5, 2.292e+1
0.546, -2.771e-6, 4.107e-5, 2.294e+1
0.547, -2.775e-6, 4.102e-5, 2.296e+1
0.548, -2.778e-6, 4.096e-5, 2.298e+1
0.549, -2.779e-6, 4.091e-5, 2.300e+1
0.550, -2.783e-6, 4.085e-5, 2.302e+1
0.551, -2.786e-6, 4.080e-5, 2.304e+1
0.552, -2.788e-6, 4.074e-5, 2.306e+1
0.553, -2.793e-6, 4.068e-5, 2.308e+1
0.554, -2.795e-6, 4.063e-5, 2.310e+1
0.555, -2.798e-6, 4.057e-5, 2.312e+1
0.556, -2.801e-6, 4.052e-5, 2.314e+1
0.557, -2.806e-6, 4.046e-5, 2.316e+1
0.558, -2.811e-6, 4.040e-5, 2.318e+1
0.559, -2.814e-6, 4.035e-5, 2.320e+1
0.560, -2.818e-6, 4.029e-5, 2.322e+1
0.561, -2.822e-6, 4.024e-5, 2.324e+1
0.562, -2.825e-6, 4.018e-5, 2.326e+1
0.563, -2.828e-6, 4.012e-5, 2.328e+1
0.564, -2.832e-6, 4.007e-5, 2.330e+1
0.565, -2.837e-6, 4.001e-5, 2.332e+1
0.566, -2.843e-6, 3.995e-5, 2.334e+1
0.567, -2.849e-6, 3.990e-5, 2.336e+1
0.568, -2.853e-6, 3.984e-5, 2.338e+1
0.569, -2.857e-6, 3.978e-5, 2.340e+1
0.570, -2.864e-6, 3.972e-5, 2.342e+1
0.571, -2.869e-6, 3.967e-5, 2.344e+1
0.572, -2.873e-6, 3.961e-5, 2.346e+1
0.573, -2.879e-6, 3.955e-5, 2.348e+1
0.574, -2.885e-6, 3.949e-5, 2.350e+1
0.575, -2.891e-6, 3.944e-5, 2.352e+1
0.576, -2.896e-6, 3.938e-5, 2.354e+1
0.577, -2.902e-6, 3.932e-5, 2.356e+1
0.578, -2.906e-6, 3.926e-5, 2.358e+1
0.579, -2.915e-6, 3.920e-5, 2.360e+1
0.580, -2.921e-6, 3.915e-5, 2.362e+1
0.581, -2.925e-6, 3.909e-5, 2.364e+1
0.582, -2.934e-6, 3.903e-5, 2.366e+1
0.583, -2.940e-6, 3.897e-5, 2.368e+1
0.584, -2.945e-6, 3.891e-5, 2.370e+1
0.585, -2.952e-6, 3.885e-5, 2.372e+1
0.586, -2.960e-6, 3.879e-5, 2.374e+1
0.587, -2.967e-6, 3.873e-5, 2.376e+1
0.588, -2.973e-6, 3.867e-5, 2.378e+1
0.589, -2.979e-6, 3.861e-5, 2.380e+1
0.590, -2.987e-6, 3.855e-5, 2.382e+1
0.591, -2.995e-6, 3.849e-5, 2.384e+1
0.592, -3.004e-6, 3.843e-5, 2.386e+1
0.593, -3.011e-6, 3.837e-5, 2.388e+1
0.594, -3.018e-6, 3.831e-5, 2.390e+1
0.595, -3.026e-6, 3.825e-5, 2.392e+1
0.596, -3.035e-6, 3.819e-5, 2.394e+1
0.597, -3.041e-6, 3.813e-5, 2.396e+1
0.598, -3.051e-6, 3.807e-5, 2.398e+1
0.599, -3.058e-6, 3.801e-5, 2.400e+1
