May 18, 2026   15:44:25
Cyclic Voltammetry
File: 0_4ml.bin
Data Source:  Experiment
Instrument Model:  CHI660D
Header: 
Note: 

Init E (V) = 0.6
High E (V) = 0.6
Low E (V) = 0
Init P/N = N
Scan Rate (V/s) = 0.05
Segment = 2
Sample Interval (V) = 0.001
Quiet Time (sec) = 2
Sensitivity (A/V) = 1e-5

Segment 1:
Ep = 0.183V
Eh = 0.243V
ip = 2.382e-5A
Ah = 3.115e-5C

Segment 2:
Ep = 0.253V
Eh = 0.193V
ip = -1.981e-5A
Ah = -2.533e-5C

Potential/V, Current/A, Charge/C, Time/s

Segment 1:
0.600, -1.037e-6, -2.074e-8, 2.000e-2
0.599, -8.966e-7, -3.867e-8, 4.000e-2
0.598, -8.443e-7, -5.556e-8, 6.000e-2
0.597, -8.137e-7, -7.183e-8, 8.000e-2
0.596, -7.888e-7, -8.761e-8, 1.000e-1
0.595, -7.643e-7, -1.029e-7, 1.200e-1
0.594, -7.436e-7, -1.178e-7, 1.400e-1
0.593, -7.228e-7, -1.322e-7, 1.600e-1
0.592, -7.044e-7, -1.463e-7, 1.800e-1
0.591, -6.855e-7, -1.600e-7, 2.000e-1
0.590, -6.669e-7, -1.734e-7, 2.200e-1
0.589, -6.499e-7, -1.864e-7, 2.400e-1
0.588, -6.343e-7, -1.990e-7, 2.600e-1
0.587, -6.182e-7, -2.114e-7, 2.800e-1
0.586, -6.008e-7, -2.234e-7, 3.000e-1
0.585, -5.868e-7, -2.352e-7, 3.200e-1
0.584, -5.723e-7, -2.466e-7, 3.400e-1
0.583, -5.565e-7, -2.577e-7, 3.600e-1
0.582, -5.417e-7, -2.686e-7, 3.800e-1
0.581, -5.289e-7, -2.791e-7, 4.000e-1
0.580, -5.145e-7, -2.894e-7, 4.200e-1
0.579, -5.022e-7, -2.995e-7, 4.400e-1
0.578, -4.888e-7, -3.093e-7, 4.600e-1
0.577, -4.766e-7, -3.188e-7, 4.800e-1
0.576, -4.627e-7, -3.280e-7, 5.000e-1
0.575, -4.503e-7, -3.370e-7, 5.200e-1
0.574, -4.401e-7, -3.458e-7, 5.400e-1
0.573, -4.283e-7, -3.544e-7, 5.600e-1
0.572, -4.155e-7, -3.627e-7, 5.800e-1
0.571, -4.045e-7, -3.708e-7, 6.000e-1
0.570, -3.928e-7, -3.787e-7, 6.200e-1
0.569, -3.831e-7, -3.863e-7, 6.400e-1
0.568, -3.716e-7, -3.938e-7, 6.600e-1
0.567, -3.613e-7, -4.010e-7, 6.800e-1
0.566, -3.518e-7, -4.080e-7, 7.000e-1
0.565, -3.409e-7, -4.148e-7, 7.200e-1
0.564, -3.320e-7, -4.215e-7, 7.400e-1
0.563, -3.243e-7, -4.280e-7, 7.600e-1
0.562, -3.129e-7, -4.342e-7, 7.800e-1
0.561, -3.032e-7, -4.403e-7, 8.000e-1
0.560, -2.933e-7, -4.462e-7, 8.200e-1
0.559, -2.828e-7, -4.518e-7, 8.400e-1
0.558, -2.758e-7, -4.573e-7, 8.600e-1
0.557, -2.661e-7, -4.626e-7, 8.800e-1
0.556, -2.565e-7, -4.678e-7, 9.000e-1
0.555, -2.493e-7, -4.728e-7, 9.200e-1
0.554, -2.399e-7, -4.776e-7, 9.400e-1
0.553, -2.319e-7, -4.822e-7, 9.600e-1
0.552, -2.239e-7, -4.867e-7, 9.800e-1
0.551, -2.157e-7, -4.910e-7, 1.000e+0
0.550, -2.074e-7, -4.951e-7, 1.020e+0
0.549, -1.997e-7, -4.991e-7, 1.040e+0
0.548, -1.918e-7, -5.030e-7, 1.060e+0
0.547, -1.846e-7, -5.067e-7, 1.080e+0
0.546, -1.775e-7, -5.102e-7, 1.100e+0
0.545, -1.699e-7, -5.136e-7, 1.120e+0
0.544, -1.617e-7, -5.168e-7, 1.140e+0
0.543, -1.550e-7, -5.199e-7, 1.160e+0
0.542, -1.489e-7, -5.229e-7, 1.180e+0
0.541, -1.410e-7, -5.257e-7, 1.200e+0
0.540, -1.342e-7, -5.284e-7, 1.220e+0
0.539, -1.273e-7, -5.310e-7, 1.240e+0
0.538, -1.205e-7, -5.334e-7, 1.260e+0
0.537, -1.151e-7, -5.357e-7, 1.280e+0
0.536, -1.068e-7, -5.378e-7, 1.300e+0
0.535, -1.015e-7, -5.398e-7, 1.320e+0
0.534, -9.441e-8, -5.417e-7, 1.340e+0
0.533, -8.817e-8, -5.435e-7, 1.360e+0
0.532, -8.142e-8, -5.451e-7, 1.380e+0
0.531, -7.519e-8, -5.466e-7, 1.400e+0
0.530, -6.880e-8, -5.480e-7, 1.420e+0
0.529, -6.326e-8, -5.493e-7, 1.440e+0
0.528, -5.722e-8, -5.504e-7, 1.460e+0
0.527, -5.093e-8, -5.514e-7, 1.480e+0
0.526, -4.589e-8, -5.524e-7, 1.500e+0
0.525, -4.056e-8, -5.532e-7, 1.520e+0
0.524, -3.538e-8, -5.539e-7, 1.540e+0
0.523, -2.966e-8, -5.545e-7, 1.560e+0
0.522, -2.309e-8, -5.549e-7, 1.580e+0
0.521, -1.838e-8, -5.553e-7, 1.600e+0
0.520, -1.350e-8, -5.556e-7, 1.620e+0
0.519, -7.434e-9, -5.557e-7, 1.640e+0
0.518, -1.566e-9, -5.557e-7, 1.660e+0
0.517, 2.769e-9, -5.557e-7, 1.680e+0
0.516, 7.943e-9, -5.555e-7, 1.700e+0
0.515, 1.364e-8, -5.553e-7, 1.720e+0
0.514, 1.779e-8, -5.549e-7, 1.740e+0
0.513, 2.391e-8, -5.544e-7, 1.760e+0
0.512, 2.916e-8, -5.538e-7, 1.780e+0
0.511, 3.370e-8, -5.532e-7, 1.800e+0
0.510, 3.887e-8, -5.524e-7, 1.820e+0
0.509, 4.343e-8, -5.515e-7, 1.840e+0
0.508, 4.831e-8, -5.506e-7, 1.860e+0
0.507, 5.218e-8, -5.495e-7, 1.880e+0
0.506, 5.858e-8, -5.483e-7, 1.900e+0
0.505, 6.105e-8, -5.471e-7, 1.920e+0
0.504, 6.610e-8, -5.458e-7, 1.940e+0
0.503, 7.129e-8, -5.444e-7, 1.960e+0
0.502, 7.591e-8, -5.429e-7, 1.980e+0
0.501, 7.898e-8, -5.413e-7, 2.000e+0
0.500, 8.427e-8, -5.396e-7, 2.020e+0
0.499, 8.927e-8, -5.378e-7, 2.040e+0
0.498, 9.364e-8, -5.359e-7, 2.060e+0
0.497, 9.732e-8, -5.340e-7, 2.080e+0
0.496, 1.014e-7, -5.320e-7, 2.100e+0
0.495, 1.052e-7, -5.299e-7, 2.120e+0
0.494, 1.100e-7, -5.277e-7, 2.140e+0
0.493, 1.140e-7, -5.254e-7, 2.160e+0
0.492, 1.186e-7, -5.230e-7, 2.180e+0
0.491, 1.228e-7, -5.205e-7, 2.200e+0
0.490, 1.258e-7, -5.180e-7, 2.220e+0
0.489, 1.302e-7, -5.154e-7, 2.240e+0
0.488, 1.337e-7, -5.128e-7, 2.260e+0
0.487, 1.379e-7, -5.100e-7, 2.280e+0
0.486, 1.399e-7, -5.072e-7, 2.300e+0
0.485, 1.450e-7, -5.043e-7, 2.320e+0
0.484, 1.493e-7, -5.013e-7, 2.340e+0
0.483, 1.526e-7, -4.983e-7, 2.360e+0
0.482, 1.578e-7, -4.951e-7, 2.380e+0
0.481, 1.613e-7, -4.919e-7, 2.400e+0
0.480, 1.643e-7, -4.886e-7, 2.420e+0
0.479, 1.685e-7, -4.852e-7, 2.440e+0
0.478, 1.713e-7, -4.818e-7, 2.460e+0
0.477, 1.761e-7, -4.783e-7, 2.480e+0
0.476, 1.792e-7, -4.747e-7, 2.500e+0
0.475, 1.816e-7, -4.711e-7, 2.520e+0
0.474, 1.868e-7, -4.673e-7, 2.540e+0
0.473, 1.905e-7, -4.635e-7, 2.560e+0
0.472, 1.933e-7, -4.596e-7, 2.580e+0
0.471, 1.964e-7, -4.557e-7, 2.600e+0
0.470, 2.002e-7, -4.517e-7, 2.620e+0
0.469, 2.030e-7, -4.477e-7, 2.640e+0
0.468, 2.069e-7, -4.435e-7, 2.660e+0
0.467, 2.106e-7, -4.393e-7, 2.680e+0
0.466, 2.148e-7, -4.350e-7, 2.700e+0
0.465, 2.171e-7, -4.307e-7, 2.720e+0
0.464, 2.198e-7, -4.263e-7, 2.740e+0
0.463, 2.233e-7, -4.218e-7, 2.760e+0
0.462, 2.268e-7, -4.173e-7, 2.780e+0
0.461, 2.286e-7, -4.127e-7, 2.800e+0
0.460, 2.310e-7, -4.081e-7, 2.820e+0
0.459, 2.355e-7, -4.034e-7, 2.840e+0
0.458, 2.395e-7, -3.986e-7, 2.860e+0
0.457, 2.430e-7, -3.937e-7, 2.880e+0
0.456, 2.470e-7, -3.888e-7, 2.900e+0
0.455, 2.496e-7, -3.838e-7, 2.920e+0
0.454, 2.525e-7, -3.787e-7, 2.940e+0
0.453, 2.562e-7, -3.736e-7, 2.960e+0
0.452, 2.601e-7, -3.684e-7, 2.980e+0
0.451, 2.620e-7, -3.632e-7, 3.000e+0
0.450, 2.658e-7, -3.579e-7, 3.020e+0
0.449, 2.693e-7, -3.525e-7, 3.040e+0
0.448, 2.723e-7, -3.470e-7, 3.060e+0
0.447, 2.751e-7, -3.415e-7, 3.080e+0
0.446, 2.781e-7, -3.360e-7, 3.100e+0
0.445, 2.810e-7, -3.303e-7, 3.120e+0
0.444, 2.844e-7, -3.247e-7, 3.140e+0
0.443, 2.872e-7, -3.189e-7, 3.160e+0
0.442, 2.909e-7, -3.131e-7, 3.180e+0
0.441, 2.941e-7, -3.072e-7, 3.200e+0
0.440, 2.968e-7, -3.013e-7, 3.220e+0
0.439, 2.997e-7, -2.953e-7, 3.240e+0
0.438, 3.027e-7, -2.892e-7, 3.260e+0
0.437, 3.064e-7, -2.831e-7, 3.280e+0
0.436, 3.100e-7, -2.769e-7, 3.300e+0
0.435, 3.111e-7, -2.707e-7, 3.320e+0
0.434, 3.155e-7, -2.644e-7, 3.340e+0
0.433, 3.184e-7, -2.580e-7, 3.360e+0
0.432, 3.220e-7, -2.516e-7, 3.380e+0
0.431, 3.255e-7, -2.450e-7, 3.400e+0
0.430, 3.276e-7, -2.385e-7, 3.420e+0
0.429, 3.315e-7, -2.319e-7, 3.440e+0
0.428, 3.349e-7, -2.252e-7, 3.460e+0
0.427, 3.361e-7, -2.184e-7, 3.480e+0
0.426, 3.401e-7, -2.116e-7, 3.500e+0
0.425, 3.435e-7, -2.048e-7, 3.520e+0
0.424, 3.468e-7, -1.978e-7, 3.540e+0
0.423, 3.509e-7, -1.908e-7, 3.560e+0
0.422, 3.540e-7, -1.837e-7, 3.580e+0
0.421, 3.579e-7, -1.766e-7, 3.600e+0
0.420, 3.603e-7, -1.694e-7, 3.620e+0
0.419, 3.634e-7, -1.621e-7, 3.640e+0
0.418, 3.677e-7, -1.547e-7, 3.660e+0
0.417, 3.700e-7, -1.473e-7, 3.680e+0
0.416, 3.730e-7, -1.399e-7, 3.700e+0
0.415, 3.763e-7, -1.324e-7, 3.720e+0
0.414, 3.805e-7, -1.248e-7, 3.740e+0
0.413, 3.844e-7, -1.171e-7, 3.760e+0
0.412, 3.866e-7, -1.093e-7, 3.780e+0
0.411, 3.898e-7, -1.015e-7, 3.800e+0
0.410, 3.888e-7, -9.376e-8, 3.820e+0
0.409, 3.887e-7, -8.598e-8, 3.840e+0
0.408, 3.980e-7, -7.802e-8, 3.860e+0
0.407, 4.036e-7, -6.995e-8, 3.880e+0
0.406, 4.072e-7, -6.181e-8, 3.900e+0
0.405, 4.114e-7, -5.358e-8, 3.920e+0
0.404, 4.142e-7, -4.529e-8, 3.940e+0
0.403, 4.197e-7, -3.690e-8, 3.960e+0
0.402, 4.223e-7, -2.845e-8, 3.980e+0
0.401, 4.266e-7, -1.992e-8, 4.000e+0
0.400, 4.309e-7, -1.130e-8, 4.020e+0
0.399, 4.346e-7, -2.612e-9, 4.040e+0
0.398, 4.374e-7, 6.137e-9, 4.060e+0
0.397, 4.440e-7, 1.502e-8, 4.080e+0
0.396, 4.463e-7, 2.394e-8, 4.100e+0
0.395, 4.509e-7, 3.296e-8, 4.120e+0
0.394, 4.563e-7, 4.209e-8, 4.140e+0
0.393, 4.599e-7, 5.128e-8, 4.160e+0
0.392, 4.656e-7, 6.060e-8, 4.180e+0
0.391, 4.707e-7, 7.001e-8, 4.200e+0
0.390, 4.744e-7, 7.950e-8, 4.220e+0
0.389, 4.791e-7, 8.908e-8, 4.240e+0
0.388, 4.842e-7, 9.876e-8, 4.260e+0
0.387, 4.885e-7, 1.085e-7, 4.280e+0
0.386, 4.942e-7, 1.184e-7, 4.300e+0
0.385, 4.990e-7, 1.284e-7, 4.320e+0
0.384, 5.039e-7, 1.385e-7, 4.340e+0
0.383, 5.101e-7, 1.487e-7, 4.360e+0
0.382, 5.158e-7, 1.590e-7, 4.380e+0
0.381, 5.212e-7, 1.694e-7, 4.400e+0
0.380, 5.270e-7, 1.800e-7, 4.420e+0
0.379, 5.326e-7, 1.906e-7, 4.440e+0
0.378, 5.395e-7, 2.014e-7, 4.460e+0
0.377, 5.463e-7, 2.123e-7, 4.480e+0
0.376, 5.525e-7, 2.234e-7, 4.500e+0
0.375, 5.588e-7, 2.346e-7, 4.520e+0
0.374, 5.650e-7, 2.459e-7, 4.540e+0
0.373, 5.719e-7, 2.573e-7, 4.560e+0
0.372, 5.799e-7, 2.689e-7, 4.580e+0
0.371, 5.858e-7, 2.806e-7, 4.600e+0
0.370, 5.939e-7, 2.925e-7, 4.620e+0
0.369, 6.014e-7, 3.045e-7, 4.640e+0
0.368, 6.097e-7, 3.167e-7, 4.660e+0
0.367, 6.175e-7, 3.291e-7, 4.680e+0
0.366, 6.252e-7, 3.416e-7, 4.700e+0
0.365, 6.336e-7, 3.542e-7, 4.720e+0
0.364, 6.440e-7, 3.671e-7, 4.740e+0
0.363, 6.520e-7, 3.802e-7, 4.760e+0
0.362, 6.618e-7, 3.934e-7, 4.780e+0
0.361, 6.714e-7, 4.068e-7, 4.800e+0
0.360, 6.807e-7, 4.204e-7, 4.820e+0
0.359, 6.913e-7, 4.343e-7, 4.840e+0
0.358, 6.988e-7, 4.482e-7, 4.860e+0
0.357, 7.117e-7, 4.625e-7, 4.880e+0
0.356, 7.231e-7, 4.769e-7, 4.900e+0
0.355, 7.358e-7, 4.916e-7, 4.920e+0
0.354, 7.469e-7, 5.066e-7, 4.940e+0
0.353, 7.589e-7, 5.218e-7, 4.960e+0
0.352, 7.727e-7, 5.372e-7, 4.980e+0
0.351, 7.851e-7, 5.529e-7, 5.000e+0
0.350, 7.980e-7, 5.689e-7, 5.020e+0
0.349, 8.122e-7, 5.851e-7, 5.040e+0
0.348, 8.269e-7, 6.017e-7, 5.060e+0
0.347, 8.408e-7, 6.185e-7, 5.080e+0
0.346, 8.575e-7, 6.356e-7, 5.100e+0
0.345, 8.729e-7, 6.531e-7, 5.120e+0
0.344, 8.881e-7, 6.708e-7, 5.140e+0
0.343, 9.059e-7, 6.890e-7, 5.160e+0
0.342, 9.230e-7, 7.074e-7, 5.180e+0
0.341, 9.417e-7, 7.263e-7, 5.200e+0
0.340, 9.607e-7, 7.455e-7, 5.220e+0
0.339, 9.789e-7, 7.651e-7, 5.240e+0
0.338, 9.993e-7, 7.850e-7, 5.260e+0
0.337, 1.019e-6, 8.054e-7, 5.280e+0
0.336, 1.040e-6, 8.262e-7, 5.300e+0
0.335, 1.063e-6, 8.475e-7, 5.320e+0
0.334, 1.087e-6, 8.692e-7, 5.340e+0
0.333, 1.110e-6, 8.914e-7, 5.360e+0
0.332, 1.132e-6, 9.141e-7, 5.380e+0
0.331, 1.158e-6, 9.372e-7, 5.400e+0
0.330, 1.184e-6, 9.609e-7, 5.420e+0
0.329, 1.211e-6, 9.851e-7, 5.440e+0
0.328, 1.239e-6, 1.010e-6, 5.460e+0
0.327, 1.268e-6, 1.035e-6, 5.480e+0
0.326, 1.299e-6, 1.061e-6, 5.500e+0
0.325, 1.331e-6, 1.088e-6, 5.520e+0
0.324, 1.363e-6, 1.115e-6, 5.540e+0
0.323, 1.395e-6, 1.143e-6, 5.560e+0
0.322, 1.429e-6, 1.172e-6, 5.580e+0
0.321, 1.466e-6, 1.201e-6, 5.600e+0
0.320, 1.502e-6, 1.231e-6, 5.620e+0
0.319, 1.540e-6, 1.262e-6, 5.640e+0
0.318, 1.579e-6, 1.293e-6, 5.660e+0
0.317, 1.621e-6, 1.326e-6, 5.680e+0
0.316, 1.661e-6, 1.359e-6, 5.700e+0
0.315, 1.706e-6, 1.393e-6, 5.720e+0
0.314, 1.751e-6, 1.428e-6, 5.740e+0
0.313, 1.798e-6, 1.464e-6, 5.760e+0
0.312, 1.846e-6, 1.501e-6, 5.780e+0
0.311, 1.898e-6, 1.539e-6, 5.800e+0
0.310, 1.950e-6, 1.578e-6, 5.820e+0
0.309, 2.002e-6, 1.618e-6, 5.840e+0
0.308, 2.057e-6, 1.659e-6, 5.860e+0
0.307, 2.115e-6, 1.701e-6, 5.880e+0
0.306, 2.176e-6, 1.745e-6, 5.900e+0
0.305, 2.235e-6, 1.790e-6, 5.920e+0
0.304, 2.301e-6, 1.836e-6, 5.940e+0
0.303, 2.366e-6, 1.883e-6, 5.960e+0
0.302, 2.433e-6, 1.932e-6, 5.980e+0
0.301, 2.505e-6, 1.982e-6, 6.000e+0
0.300, 2.579e-6, 2.033e-6, 6.020e+0
0.299, 2.652e-6, 2.086e-6, 6.040e+0
0.298, 2.730e-6, 2.141e-6, 6.060e+0
0.297, 2.809e-6, 2.197e-6, 6.080e+0
0.296, 2.892e-6, 2.255e-6, 6.100e+0
0.295, 2.979e-6, 2.315e-6, 6.120e+0
0.294, 3.071e-6, 2.376e-6, 6.140e+0
0.293, 3.163e-6, 2.439e-6, 6.160e+0
0.292, 3.257e-6, 2.504e-6, 6.180e+0
0.291, 3.352e-6, 2.571e-6, 6.200e+0
0.290, 3.452e-6, 2.640e-6, 6.220e+0
0.289, 3.555e-6, 2.712e-6, 6.240e+0
0.288, 3.663e-6, 2.785e-6, 6.260e+0
0.287, 3.773e-6, 2.860e-6, 6.280e+0
0.286, 3.887e-6, 2.938e-6, 6.300e+0
0.285, 4.003e-6, 3.018e-6, 6.320e+0
0.284, 4.126e-6, 3.101e-6, 6.340e+0
0.283, 4.249e-6, 3.186e-6, 6.360e+0
0.282, 4.382e-6, 3.273e-6, 6.380e+0
0.281, 4.509e-6, 3.363e-6, 6.400e+0
0.280, 4.645e-6, 3.456e-6, 6.420e+0
0.279, 4.786e-6, 3.552e-6, 6.440e+0
0.278, 4.931e-6, 3.651e-6, 6.460e+0
0.277, 5.083e-6, 3.752e-6, 6.480e+0
0.276, 5.235e-6, 3.857e-6, 6.500e+0
0.275, 5.390e-6, 3.965e-6, 6.520e+0
0.274, 5.556e-6, 4.076e-6, 6.540e+0
0.273, 5.721e-6, 4.190e-6, 6.560e+0
0.272, 5.895e-6, 4.308e-6, 6.580e+0
0.271, 6.075e-6, 4.430e-6, 6.600e+0
0.270, 6.248e-6, 4.555e-6, 6.620e+0
0.269, 6.437e-6, 4.683e-6, 6.640e+0
0.268, 6.620e-6, 4.816e-6, 6.660e+0
0.267, 6.813e-6, 4.952e-6, 6.680e+0
0.266, 7.017e-6, 5.092e-6, 6.700e+0
0.265, 7.223e-6, 5.237e-6, 6.720e+0
0.264, 7.430e-6, 5.386e-6, 6.740e+0
0.263, 7.642e-6, 5.538e-6, 6.760e+0
0.262, 7.859e-6, 5.696e-6, 6.780e+0
0.261, 8.084e-6, 5.857e-6, 6.800e+0
0.260, 8.311e-6, 6.023e-6, 6.820e+0
0.259, 8.548e-6, 6.194e-6, 6.840e+0
0.258, 8.781e-6, 6.370e-6, 6.860e+0
0.257, 9.024e-6, 6.551e-6, 6.880e+0
0.256, 9.254e-6, 6.736e-6, 6.900e+0
0.255, 9.501e-6, 6.926e-6, 6.920e+0
0.254, 9.761e-6, 7.121e-6, 6.940e+0
0.253, 1.002e-5, 7.321e-6, 6.960e+0
0.252, 1.029e-5, 7.527e-6, 6.980e+0
0.251, 1.056e-5, 7.738e-6, 7.000e+0
0.250, 1.083e-5, 7.955e-6, 7.020e+0
0.249, 1.110e-5, 8.177e-6, 7.040e+0
0.248, 1.139e-5, 8.405e-6, 7.060e+0
0.247, 1.167e-5, 8.638e-6, 7.080e+0
0.246, 1.195e-5, 8.877e-6, 7.100e+0
0.245, 1.224e-5, 9.122e-6, 7.120e+0
0.244, 1.253e-5, 9.373e-6, 7.140e+0
0.243, 1.283e-5, 9.629e-6, 7.160e+0
0.242, 1.313e-5, 9.892e-6, 7.180e+0
0.241, 1.343e-5, 1.016e-5, 7.200e+0
0.240, 1.373e-5, 1.044e-5, 7.220e+0
0.239, 1.404e-5, 1.072e-5, 7.240e+0
0.238, 1.435e-5, 1.100e-5, 7.260e+0
0.237, 1.465e-5, 1.130e-5, 7.280e+0
0.236, 1.497e-5, 1.160e-5, 7.300e+0
0.235, 1.527e-5, 1.190e-5, 7.320e+0
0.234, 1.557e-5, 1.221e-5, 7.340e+0
0.233, 1.589e-5, 1.253e-5, 7.360e+0
0.232, 1.620e-5, 1.285e-5, 7.380e+0
0.231, 1.650e-5, 1.318e-5, 7.400e+0
0.230, 1.679e-5, 1.352e-5, 7.420e+0
0.229, 1.710e-5, 1.386e-5, 7.440e+0
0.228, 1.741e-5, 1.421e-5, 7.460e+0
0.227, 1.771e-5, 1.456e-5, 7.480e+0
0.226, 1.801e-5, 1.492e-5, 7.500e+0
0.225, 1.831e-5, 1.529e-5, 7.520e+0
0.224, 1.860e-5, 1.566e-5, 7.540e+0
0.223, 1.890e-5, 1.604e-5, 7.560e+0
0.222, 1.918e-5, 1.642e-5, 7.580e+0
0.221, 1.946e-5, 1.681e-5, 7.600e+0
0.220, 1.974e-5, 1.721e-5, 7.620e+0
0.219, 2.001e-5, 1.761e-5, 7.640e+0
0.218, 2.028e-5, 1.801e-5, 7.660e+0
0.217, 2.055e-5, 1.843e-5, 7.680e+0
0.216, 2.080e-5, 1.884e-5, 7.700e+0
0.215, 2.105e-5, 1.926e-5, 7.720e+0
0.214, 2.129e-5, 1.969e-5, 7.740e+0
0.213, 2.154e-5, 2.012e-5, 7.760e+0
0.212, 2.175e-5, 2.055e-5, 7.780e+0
0.211, 2.198e-5, 2.099e-5, 7.800e+0
0.210, 2.220e-5, 2.144e-5, 7.820e+0
0.209, 2.240e-5, 2.189e-5, 7.840e+0
0.208, 2.261e-5, 2.234e-5, 7.860e+0
0.207, 2.281e-5, 2.279e-5, 7.880e+0
0.206, 2.299e-5, 2.325e-5, 7.900e+0
0.205, 2.318e-5, 2.372e-5, 7.920e+0
0.204, 2.338e-5, 2.418e-5, 7.940e+0
0.203, 2.352e-5, 2.466e-5, 7.960e+0
0.202, 2.366e-5, 2.513e-5, 7.980e+0
0.201, 2.381e-5, 2.560e-5, 8.000e+0
0.200, 2.394e-5, 2.608e-5, 8.020e+0
0.199, 2.406e-5, 2.656e-5, 8.040e+0
0.198, 2.417e-5, 2.705e-5, 8.060e+0
0.197, 2.428e-5, 2.753e-5, 8.080e+0
0.196, 2.438e-5, 2.802e-5, 8.100e+0
0.195, 2.446e-5, 2.851e-5, 8.120e+0
0.194, 2.455e-5, 2.900e-5, 8.140e+0
0.193, 2.462e-5, 2.949e-5, 8.160e+0
0.192, 2.469e-5, 2.999e-5, 8.180e+0
0.191, 2.475e-5, 3.048e-5, 8.200e+0
0.190, 2.479e-5, 3.098e-5, 8.220e+0
0.189, 2.483e-5, 3.148e-5, 8.240e+0
0.188, 2.487e-5, 3.197e-5, 8.260e+0
0.187, 2.490e-5, 3.247e-5, 8.280e+0
0.186, 2.491e-5, 3.297e-5, 8.300e+0
0.185, 2.493e-5, 3.347e-5, 8.320e+0
0.184, 2.493e-5, 3.397e-5, 8.340e+0
0.183, 2.493e-5, 3.446e-5, 8.360e+0
0.182, 2.491e-5, 3.496e-5, 8.380e+0
0.181, 2.490e-5, 3.546e-5, 8.400e+0
0.180, 2.488e-5, 3.596e-5, 8.420e+0
0.179, 2.485e-5, 3.645e-5, 8.440e+0
0.178, 2.482e-5, 3.695e-5, 8.460e+0
0.177, 2.478e-5, 3.745e-5, 8.480e+0
0.176, 2.473e-5, 3.794e-5, 8.500e+0
0.175, 2.469e-5, 3.844e-5, 8.520e+0
0.174, 2.463e-5, 3.893e-5, 8.540e+0
0.173, 2.458e-5, 3.942e-5, 8.560e+0
0.172, 2.452e-5, 3.991e-5, 8.580e+0
0.171, 2.445e-5, 4.040e-5, 8.600e+0
0.170, 2.439e-5, 4.089e-5, 8.620e+0
0.169, 2.431e-5, 4.137e-5, 8.640e+0
0.168, 2.423e-5, 4.186e-5, 8.660e+0
0.167, 2.415e-5, 4.234e-5, 8.680e+0
0.166, 2.407e-5, 4.282e-5, 8.700e+0
0.165, 2.399e-5, 4.330e-5, 8.720e+0
0.164, 2.390e-5, 4.378e-5, 8.740e+0
0.163, 2.381e-5, 4.426e-5, 8.760e+0
0.162, 2.372e-5, 4.473e-5, 8.780e+0
0.161, 2.362e-5, 4.520e-5, 8.800e+0
0.160, 2.353e-5, 4.567e-5, 8.820e+0
0.159, 2.343e-5, 4.614e-5, 8.840e+0
0.158, 2.332e-5, 4.661e-5, 8.860e+0
0.157, 2.323e-5, 4.707e-5, 8.880e+0
0.156, 2.312e-5, 4.754e-5, 8.900e+0
0.155, 2.301e-5, 4.800e-5, 8.920e+0
0.154, 2.291e-5, 4.845e-5, 8.940e+0
0.153, 2.279e-5, 4.891e-5, 8.960e+0
0.152, 2.269e-5, 4.936e-5, 8.980e+0
0.151, 2.259e-5, 4.982e-5, 9.000e+0
0.150, 2.248e-5, 5.026e-5, 9.020e+0
0.149, 2.237e-5, 5.071e-5, 9.040e+0
0.148, 2.227e-5, 5.116e-5, 9.060e+0
0.147, 2.216e-5, 5.160e-5, 9.080e+0
0.146, 2.205e-5, 5.204e-5, 9.100e+0
0.145, 2.195e-5, 5.248e-5, 9.120e+0
0.144, 2.184e-5, 5.292e-5, 9.140e+0
0.143, 2.173e-5, 5.335e-5, 9.160e+0
0.142, 2.162e-5, 5.378e-5, 9.180e+0
0.141, 2.152e-5, 5.421e-5, 9.200e+0
0.140, 2.141e-5, 5.464e-5, 9.220e+0
0.139, 2.130e-5, 5.507e-5, 9.240e+0
0.138, 2.119e-5, 5.549e-5, 9.260e+0
0.137, 2.109e-5, 5.591e-5, 9.280e+0
0.136, 2.098e-5, 5.633e-5, 9.300e+0
0.135, 2.088e-5, 5.675e-5, 9.320e+0
0.134, 2.078e-5, 5.717e-5, 9.340e+0
0.133, 2.068e-5, 5.758e-5, 9.360e+0
0.132, 2.058e-5, 5.799e-5, 9.380e+0
0.131, 2.047e-5, 5.840e-5, 9.400e+0
0.130, 2.037e-5, 5.881e-5, 9.420e+0
0.129, 2.028e-5, 5.922e-5, 9.440e+0
0.128, 2.018e-5, 5.962e-5, 9.460e+0
0.127, 2.008e-5, 6.002e-5, 9.480e+0
0.126, 1.998e-5, 6.042e-5, 9.500e+0
0.125, 1.989e-5, 6.082e-5, 9.520e+0
0.124, 1.980e-5, 6.121e-5, 9.540e+0
0.123, 1.970e-5, 6.161e-5, 9.560e+0
0.122, 1.961e-5, 6.200e-5, 9.580e+0
0.121, 1.952e-5, 6.239e-5, 9.600e+0
0.120, 1.943e-5, 6.278e-5, 9.620e+0
0.119, 1.934e-5, 6.317e-5, 9.640e+0
0.118, 1.926e-5, 6.355e-5, 9.660e+0
0.117, 1.917e-5, 6.393e-5, 9.680e+0
0.116, 1.908e-5, 6.432e-5, 9.700e+0
0.115, 1.900e-5, 6.470e-5, 9.720e+0
0.114, 1.892e-5, 6.507e-5, 9.740e+0
0.113, 1.883e-5, 6.545e-5, 9.760e+0
0.112, 1.875e-5, 6.583e-5, 9.780e+0
0.111, 1.867e-5, 6.620e-5, 9.800e+0
0.110, 1.859e-5, 6.657e-5, 9.820e+0
0.109, 1.852e-5, 6.694e-5, 9.840e+0
0.108, 1.844e-5, 6.731e-5, 9.860e+0
0.107, 1.836e-5, 6.768e-5, 9.880e+0
0.106, 1.829e-5, 6.804e-5, 9.900e+0
0.105, 1.822e-5, 6.841e-5, 9.920e+0
0.104, 1.815e-5, 6.877e-5, 9.940e+0
0.103, 1.807e-5, 6.913e-5, 9.960e+0
0.102, 1.801e-5, 6.949e-5, 9.980e+0
0.101, 1.794e-5, 6.985e-5, 1.000e+1
0.100, 1.787e-5, 7.021e-5, 1.002e+1
0.099, 1.780e-5, 7.056e-5, 1.004e+1
0.098, 1.774e-5, 7.092e-5, 1.006e+1
0.097, 1.767e-5, 7.127e-5, 1.008e+1
0.096, 1.761e-5, 7.162e-5, 1.010e+1
0.095, 1.754e-5, 7.198e-5, 1.012e+1
0.094, 1.748e-5, 7.232e-5, 1.014e+1
0.093, 1.742e-5, 7.267e-5, 1.016e+1
0.092, 1.736e-5, 7.302e-5, 1.018e+1
0.091, 1.730e-5, 7.337e-5, 1.020e+1
0.090, 1.725e-5, 7.371e-5, 1.022e+1
0.089, 1.719e-5, 7.406e-5, 1.024e+1
0.088, 1.713e-5, 7.440e-5, 1.026e+1
0.087, 1.708e-5, 7.474e-5, 1.028e+1
0.086, 1.703e-5, 7.508e-5, 1.030e+1
0.085, 1.697e-5, 7.542e-5, 1.032e+1
0.084, 1.692e-5, 7.576e-5, 1.034e+1
0.083, 1.687e-5, 7.610e-5, 1.036e+1
0.082, 1.682e-5, 7.643e-5, 1.038e+1
0.081, 1.677e-5, 7.677e-5, 1.040e+1
0.080, 1.672e-5, 7.710e-5, 1.042e+1
0.079, 1.668e-5, 7.744e-5, 1.044e+1
0.078, 1.663e-5, 7.777e-5, 1.046e+1
0.077, 1.658e-5, 7.810e-5, 1.048e+1
0.076, 1.654e-5, 7.843e-5, 1.050e+1
0.075, 1.650e-5, 7.876e-5, 1.052e+1
0.074, 1.645e-5, 7.909e-5, 1.054e+1
0.073, 1.641e-5, 7.942e-5, 1.056e+1
0.072, 1.637e-5, 7.975e-5, 1.058e+1
0.071, 1.633e-5, 8.007e-5, 1.060e+1
0.070, 1.629e-5, 8.040e-5, 1.062e+1
0.069, 1.625e-5, 8.072e-5, 1.064e+1
0.068, 1.621e-5, 8.105e-5, 1.066e+1
0.067, 1.618e-5, 8.137e-5, 1.068e+1
0.066, 1.614e-5, 8.169e-5, 1.070e+1
0.065, 1.610e-5, 8.202e-5, 1.072e+1
0.064, 1.607e-5, 8.234e-5, 1.074e+1
0.063, 1.604e-5, 8.266e-5, 1.076e+1
0.062, 1.600e-5, 8.298e-5, 1.078e+1
0.061, 1.597e-5, 8.330e-5, 1.080e+1
0.060, 1.594e-5, 8.362e-5, 1.082e+1
0.059, 1.591e-5, 8.393e-5, 1.084e+1
0.058, 1.588e-5, 8.425e-5, 1.086e+1
0.057, 1.585e-5, 8.457e-5, 1.088e+1
0.056, 1.582e-5, 8.488e-5, 1.090e+1
0.055, 1.579e-5, 8.520e-5, 1.092e+1
0.054, 1.576e-5, 8.552e-5, 1.094e+1
0.053, 1.574e-5, 8.583e-5, 1.096e+1
0.052, 1.571e-5, 8.614e-5, 1.098e+1
0.051, 1.568e-5, 8.646e-5, 1.100e+1
0.050, 1.566e-5, 8.677e-5, 1.102e+1
0.049, 1.564e-5, 8.708e-5, 1.104e+1
0.048, 1.561e-5, 8.740e-5, 1.106e+1
0.047, 1.559e-5, 8.771e-5, 1.108e+1
0.046, 1.557e-5, 8.802e-5, 1.110e+1
0.045, 1.555e-5, 8.833e-5, 1.112e+1
0.044, 1.553e-5, 8.864e-5, 1.114e+1
0.043, 1.551e-5, 8.895e-5, 1.116e+1
0.042, 1.549e-5, 8.926e-5, 1.118e+1
0.041, 1.547e-5, 8.957e-5, 1.120e+1
0.040, 1.545e-5, 8.988e-5, 1.122e+1
0.039, 1.544e-5, 9.019e-5, 1.124e+1
0.038, 1.542e-5, 9.050e-5, 1.126e+1
0.037, 1.540e-5, 9.081e-5, 1.128e+1
0.036, 1.539e-5, 9.111e-5, 1.130e+1
0.035, 1.538e-5, 9.142e-5, 1.132e+1
0.034, 1.536e-5, 9.173e-5, 1.134e+1
0.033, 1.535e-5, 9.204e-5, 1.136e+1
0.032, 1.534e-5, 9.234e-5, 1.138e+1
0.031, 1.533e-5, 9.265e-5, 1.140e+1
0.030, 1.531e-5, 9.295e-5, 1.142e+1
0.029, 1.530e-5, 9.326e-5, 1.144e+1
0.028, 1.529e-5, 9.357e-5, 1.146e+1
0.027, 1.529e-5, 9.387e-5, 1.148e+1
0.026, 1.528e-5, 9.418e-5, 1.150e+1
0.025, 1.527e-5, 9.448e-5, 1.152e+1
0.024, 1.526e-5, 9.479e-5, 1.154e+1
0.023, 1.526e-5, 9.509e-5, 1.156e+1
0.022, 1.525e-5, 9.540e-5, 1.158e+1
0.021, 1.524e-5, 9.570e-5, 1.160e+1
0.020, 1.524e-5, 9.601e-5, 1.162e+1
0.019, 1.523e-5, 9.631e-5, 1.164e+1
0.018, 1.523e-5, 9.662e-5, 1.166e+1
0.017, 1.523e-5, 9.692e-5, 1.168e+1
0.016, 1.523e-5, 9.723e-5, 1.170e+1
0.015, 1.523e-5, 9.753e-5, 1.172e+1
0.014, 1.522e-5, 9.784e-5, 1.174e+1
0.013, 1.522e-5, 9.814e-5, 1.176e+1
0.012, 1.523e-5, 9.844e-5, 1.178e+1
0.011, 1.523e-5, 9.875e-5, 1.180e+1
0.010, 1.523e-5, 9.905e-5, 1.182e+1
0.009, 1.523e-5, 9.936e-5, 1.184e+1
0.008, 1.523e-5, 9.966e-5, 1.186e+1
0.007, 1.524e-5, 9.997e-5, 1.188e+1
0.006, 1.524e-5, 1.003e-4, 1.190e+1
0.005, 1.525e-5, 1.006e-4, 1.192e+1
0.004, 1.525e-5, 1.009e-4, 1.194e+1
0.003, 1.526e-5, 1.012e-4, 1.196e+1
0.002, 1.527e-5, 1.015e-4, 1.198e+1
0.001, 1.527e-5, 1.018e-4, 1.200e+1

Segment 2:
0.000, 1.519e-5, 1.021e-4, 1.202e+1
0.001, 1.488e-5, 1.024e-4, 1.204e+1
0.002, 1.470e-5, 1.027e-4, 1.206e+1
0.003, 1.457e-5, 1.030e-4, 1.208e+1
0.004, 1.445e-5, 1.033e-4, 1.210e+1
0.005, 1.434e-5, 1.036e-4, 1.212e+1
0.006, 1.424e-5, 1.038e-4, 1.214e+1
0.007, 1.414e-5, 1.041e-4, 1.216e+1
0.008, 1.405e-5, 1.044e-4, 1.218e+1
0.009, 1.395e-5, 1.047e-4, 1.220e+1
0.010, 1.386e-5, 1.050e-4, 1.222e+1
0.011, 1.378e-5, 1.052e-4, 1.224e+1
0.012, 1.369e-5, 1.055e-4, 1.226e+1
0.013, 1.361e-5, 1.058e-4, 1.228e+1
0.014, 1.353e-5, 1.061e-4, 1.230e+1
0.015, 1.345e-5, 1.063e-4, 1.232e+1
0.016, 1.338e-5, 1.066e-4, 1.234e+1
0.017, 1.330e-5, 1.069e-4, 1.236e+1
0.018, 1.323e-5, 1.071e-4, 1.238e+1
0.019, 1.316e-5, 1.074e-4, 1.240e+1
0.020, 1.309e-5, 1.077e-4, 1.242e+1
0.021, 1.302e-5, 1.079e-4, 1.244e+1
0.022, 1.295e-5, 1.082e-4, 1.246e+1
0.023, 1.289e-5, 1.084e-4, 1.248e+1
0.024, 1.282e-5, 1.087e-4, 1.250e+1
0.025, 1.276e-5, 1.089e-4, 1.252e+1
0.026, 1.270e-5, 1.092e-4, 1.254e+1
0.027, 1.264e-5, 1.094e-4, 1.256e+1
0.028, 1.258e-5, 1.097e-4, 1.258e+1
0.029, 1.251e-5, 1.099e-4, 1.260e+1
0.030, 1.246e-5, 1.102e-4, 1.262e+1
0.031, 1.240e-5, 1.104e-4, 1.264e+1
0.032, 1.234e-5, 1.107e-4, 1.266e+1
0.033, 1.228e-5, 1.109e-4, 1.268e+1
0.034, 1.223e-5, 1.112e-4, 1.270e+1
0.035, 1.218e-5, 1.114e-4, 1.272e+1
0.036, 1.212e-5, 1.117e-4, 1.274e+1
0.037, 1.207e-5, 1.119e-4, 1.276e+1
0.038, 1.201e-5, 1.121e-4, 1.278e+1
0.039, 1.196e-5, 1.124e-4, 1.280e+1
0.040, 1.191e-5, 1.126e-4, 1.282e+1
0.041, 1.186e-5, 1.129e-4, 1.284e+1
0.042, 1.181e-5, 1.131e-4, 1.286e+1
0.043, 1.176e-5, 1.133e-4, 1.288e+1
0.044, 1.171e-5, 1.136e-4, 1.290e+1
0.045, 1.166e-5, 1.138e-4, 1.292e+1
0.046, 1.161e-5, 1.140e-4, 1.294e+1
0.047, 1.157e-5, 1.143e-4, 1.296e+1
0.048, 1.152e-5, 1.145e-4, 1.298e+1
0.049, 1.147e-5, 1.147e-4, 1.300e+1
0.050, 1.143e-5, 1.150e-4, 1.302e+1
0.051, 1.139e-5, 1.152e-4, 1.304e+1
0.052, 1.134e-5, 1.154e-4, 1.306e+1
0.053, 1.129e-5, 1.156e-4, 1.308e+1
0.054, 1.125e-5, 1.159e-4, 1.310e+1
0.055, 1.121e-5, 1.161e-4, 1.312e+1
0.056, 1.116e-5, 1.163e-4, 1.314e+1
0.057, 1.112e-5, 1.165e-4, 1.316e+1
0.058, 1.107e-5, 1.168e-4, 1.318e+1
0.059, 1.103e-5, 1.170e-4, 1.320e+1
0.060, 1.099e-5, 1.172e-4, 1.322e+1
0.061, 1.095e-5, 1.174e-4, 1.324e+1
0.062, 1.091e-5, 1.176e-4, 1.326e+1
0.063, 1.086e-5, 1.178e-4, 1.328e+1
0.064, 1.082e-5, 1.181e-4, 1.330e+1
0.065, 1.078e-5, 1.183e-4, 1.332e+1
0.066, 1.074e-5, 1.185e-4, 1.334e+1
0.067, 1.070e-5, 1.187e-4, 1.336e+1
0.068, 1.066e-5, 1.189e-4, 1.338e+1
0.069, 1.062e-5, 1.191e-4, 1.340e+1
0.070, 1.058e-5, 1.193e-4, 1.342e+1
0.071, 1.053e-5, 1.196e-4, 1.344e+1
0.072, 1.049e-5, 1.198e-4, 1.346e+1
0.073, 1.045e-5, 1.200e-4, 1.348e+1
0.074, 1.041e-5, 1.202e-4, 1.350e+1
0.075, 1.037e-5, 1.204e-4, 1.352e+1
0.076, 1.033e-5, 1.206e-4, 1.354e+1
0.077, 1.029e-5, 1.208e-4, 1.356e+1
0.078, 1.025e-5, 1.210e-4, 1.358e+1
0.079, 1.021e-5, 1.212e-4, 1.360e+1
0.080, 1.017e-5, 1.214e-4, 1.362e+1
0.081, 1.013e-5, 1.216e-4, 1.364e+1
0.082, 1.009e-5, 1.218e-4, 1.366e+1
0.083, 1.005e-5, 1.220e-4, 1.368e+1
0.084, 1.001e-5, 1.222e-4, 1.370e+1
0.085, 9.966e-6, 1.224e-4, 1.372e+1
0.086, 9.925e-6, 1.226e-4, 1.374e+1
0.087, 9.884e-6, 1.228e-4, 1.376e+1
0.088, 9.842e-6, 1.230e-4, 1.378e+1
0.089, 9.800e-6, 1.232e-4, 1.380e+1
0.090, 9.757e-6, 1.234e-4, 1.382e+1
0.091, 9.716e-6, 1.236e-4, 1.384e+1
0.092, 9.674e-6, 1.238e-4, 1.386e+1
0.093, 9.630e-6, 1.240e-4, 1.388e+1
0.094, 9.586e-6, 1.242e-4, 1.390e+1
0.095, 9.544e-6, 1.244e-4, 1.392e+1
0.096, 9.498e-6, 1.246e-4, 1.394e+1
0.097, 9.452e-6, 1.247e-4, 1.396e+1
0.098, 9.408e-6, 1.249e-4, 1.398e+1
0.099, 9.363e-6, 1.251e-4, 1.400e+1
0.100, 9.317e-6, 1.253e-4, 1.402e+1
0.101, 9.271e-6, 1.255e-4, 1.404e+1
0.102, 9.222e-6, 1.257e-4, 1.406e+1
0.103, 9.172e-6, 1.259e-4, 1.408e+1
0.104, 9.126e-6, 1.260e-4, 1.410e+1
0.105, 9.076e-6, 1.262e-4, 1.412e+1
0.106, 9.026e-6, 1.264e-4, 1.414e+1
0.107, 8.976e-6, 1.266e-4, 1.416e+1
0.108, 8.923e-6, 1.268e-4, 1.418e+1
0.109, 8.871e-6, 1.269e-4, 1.420e+1
0.110, 8.819e-6, 1.271e-4, 1.422e+1
0.111, 8.764e-6, 1.273e-4, 1.424e+1
0.112, 8.710e-6, 1.275e-4, 1.426e+1
0.113, 8.652e-6, 1.276e-4, 1.428e+1
0.114, 8.595e-6, 1.278e-4, 1.430e+1
0.115, 8.538e-6, 1.280e-4, 1.432e+1
0.116, 8.478e-6, 1.282e-4, 1.434e+1
0.117, 8.417e-6, 1.283e-4, 1.436e+1
0.118, 8.355e-6, 1.285e-4, 1.438e+1
0.119, 8.295e-6, 1.287e-4, 1.440e+1
0.120, 8.228e-6, 1.288e-4, 1.442e+1
0.121, 8.163e-6, 1.290e-4, 1.444e+1
0.122, 8.096e-6, 1.291e-4, 1.446e+1
0.123, 8.026e-6, 1.293e-4, 1.448e+1
0.124, 7.956e-6, 1.295e-4, 1.450e+1
0.125, 7.886e-6, 1.296e-4, 1.452e+1
0.126, 7.812e-6, 1.298e-4, 1.454e+1
0.127, 7.737e-6, 1.299e-4, 1.456e+1
0.128, 7.662e-6, 1.301e-4, 1.458e+1
0.129, 7.585e-6, 1.302e-4, 1.460e+1
0.130, 7.502e-6, 1.304e-4, 1.462e+1
0.131, 7.419e-6, 1.305e-4, 1.464e+1
0.132, 7.335e-6, 1.307e-4, 1.466e+1
0.133, 7.248e-6, 1.308e-4, 1.468e+1
0.134, 7.159e-6, 1.310e-4, 1.470e+1
0.135, 7.066e-6, 1.311e-4, 1.472e+1
0.136, 6.973e-6, 1.313e-4, 1.474e+1
0.137, 6.877e-6, 1.314e-4, 1.476e+1
0.138, 6.783e-6, 1.315e-4, 1.478e+1
0.139, 6.678e-6, 1.317e-4, 1.480e+1
0.140, 6.576e-6, 1.318e-4, 1.482e+1
0.141, 6.470e-6, 1.319e-4, 1.484e+1
0.142, 6.361e-6, 1.320e-4, 1.486e+1
0.143, 6.250e-6, 1.322e-4, 1.488e+1
0.144, 6.135e-6, 1.323e-4, 1.490e+1
0.145, 6.015e-6, 1.324e-4, 1.492e+1
0.146, 5.897e-6, 1.325e-4, 1.494e+1
0.147, 5.772e-6, 1.326e-4, 1.496e+1
0.148, 5.641e-6, 1.328e-4, 1.498e+1
0.149, 5.511e-6, 1.329e-4, 1.500e+1
0.150, 5.378e-6, 1.330e-4, 1.502e+1
0.151, 5.239e-6, 1.331e-4, 1.504e+1
0.152, 5.099e-6, 1.332e-4, 1.506e+1
0.153, 4.955e-6, 1.333e-4, 1.508e+1
0.154, 4.818e-6, 1.334e-4, 1.510e+1
0.155, 4.666e-6, 1.335e-4, 1.512e+1
0.156, 4.508e-6, 1.336e-4, 1.514e+1
0.157, 4.343e-6, 1.336e-4, 1.516e+1
0.158, 4.171e-6, 1.337e-4, 1.518e+1
0.159, 4.004e-6, 1.338e-4, 1.520e+1
0.160, 3.835e-6, 1.339e-4, 1.522e+1
0.161, 3.658e-6, 1.340e-4, 1.524e+1
0.162, 3.478e-6, 1.340e-4, 1.526e+1
0.163, 3.288e-6, 1.341e-4, 1.528e+1
0.164, 3.096e-6, 1.342e-4, 1.530e+1
0.165, 2.903e-6, 1.342e-4, 1.532e+1
0.166, 2.707e-6, 1.343e-4, 1.534e+1
0.167, 2.501e-6, 1.343e-4, 1.536e+1
0.168, 2.294e-6, 1.344e-4, 1.538e+1
0.169, 2.080e-6, 1.344e-4, 1.540e+1
0.170, 1.856e-6, 1.344e-4, 1.542e+1
0.171, 1.638e-6, 1.345e-4, 1.544e+1
0.172, 1.413e-6, 1.345e-4, 1.546e+1
0.173, 1.179e-6, 1.345e-4, 1.548e+1
0.174, 9.377e-7, 1.346e-4, 1.550e+1
0.175, 6.991e-7, 1.346e-4, 1.552e+1
0.176, 4.559e-7, 1.346e-4, 1.554e+1
0.177, 2.002e-7, 1.346e-4, 1.556e+1
0.178, -5.577e-8, 1.346e-4, 1.558e+1
0.179, -3.104e-7, 1.346e-4, 1.560e+1
0.180, -5.747e-7, 1.346e-4, 1.562e+1
0.181, -8.459e-7, 1.345e-4, 1.564e+1
0.182, -1.121e-6, 1.345e-4, 1.566e+1
0.183, -1.393e-6, 1.345e-4, 1.568e+1
0.184, -1.673e-6, 1.345e-4, 1.570e+1
0.185, -1.962e-6, 1.344e-4, 1.572e+1
0.186, -2.250e-6, 1.344e-4, 1.574e+1
0.187, -2.535e-6, 1.343e-4, 1.576e+1
0.188, -2.834e-6, 1.343e-4, 1.578e+1
0.189, -3.137e-6, 1.342e-4, 1.580e+1
0.190, -3.444e-6, 1.341e-4, 1.582e+1
0.191, -3.742e-6, 1.341e-4, 1.584e+1
0.192, -4.059e-6, 1.340e-4, 1.586e+1
0.193, -4.364e-6, 1.339e-4, 1.588e+1
0.194, -4.671e-6, 1.338e-4, 1.590e+1
0.195, -5.000e-6, 1.337e-4, 1.592e+1
0.196, -5.314e-6, 1.336e-4, 1.594e+1
0.197, -5.631e-6, 1.335e-4, 1.596e+1
0.198, -5.951e-6, 1.334e-4, 1.598e+1
0.199, -6.280e-6, 1.332e-4, 1.600e+1
0.200, -6.613e-6, 1.331e-4, 1.602e+1
0.201, -6.930e-6, 1.330e-4, 1.604e+1
0.202, -7.245e-6, 1.328e-4, 1.606e+1
0.203, -7.556e-6, 1.327e-4, 1.608e+1
0.204, -7.878e-6, 1.325e-4, 1.610e+1
0.205, -8.240e-6, 1.323e-4, 1.612e+1
0.206, -8.577e-6, 1.322e-4, 1.614e+1
0.207, -8.872e-6, 1.320e-4, 1.616e+1
0.208, -9.175e-6, 1.318e-4, 1.618e+1
0.209, -9.504e-6, 1.316e-4, 1.620e+1
0.210, -9.811e-6, 1.314e-4, 1.622e+1
0.211, -1.011e-5, 1.312e-4, 1.624e+1
0.212, -1.042e-5, 1.310e-4, 1.626e+1
0.213, -1.071e-5, 1.308e-4, 1.628e+1
0.214, -1.100e-5, 1.306e-4, 1.630e+1
0.215, -1.128e-5, 1.304e-4, 1.632e+1
0.216, -1.157e-5, 1.301e-4, 1.634e+1
0.217, -1.185e-5, 1.299e-4, 1.636e+1
0.218, -1.213e-5, 1.296e-4, 1.638e+1
0.219, -1.239e-5, 1.294e-4, 1.640e+1
0.220, -1.265e-5, 1.291e-4, 1.642e+1
0.221, -1.290e-5, 1.289e-4, 1.644e+1
0.222, -1.315e-5, 1.286e-4, 1.646e+1
0.223, -1.339e-5, 1.284e-4, 1.648e+1
0.224, -1.363e-5, 1.281e-4, 1.650e+1
0.225, -1.385e-5, 1.278e-4, 1.652e+1
0.226, -1.407e-5, 1.275e-4, 1.654e+1
0.227, -1.428e-5, 1.272e-4, 1.656e+1
0.228, -1.447e-5, 1.269e-4, 1.658e+1
0.229, -1.466e-5, 1.267e-4, 1.660e+1
0.230, -1.484e-5, 1.264e-4, 1.662e+1
0.231, -1.502e-5, 1.261e-4, 1.664e+1
0.232, -1.520e-5, 1.258e-4, 1.666e+1
0.233, -1.536e-5, 1.254e-4, 1.668e+1
0.234, -1.551e-5, 1.251e-4, 1.670e+1
0.235, -1.565e-5, 1.248e-4, 1.672e+1
0.236, -1.578e-5, 1.245e-4, 1.674e+1
0.237, -1.591e-5, 1.242e-4, 1.676e+1
0.238, -1.602e-5, 1.239e-4, 1.678e+1
0.239, -1.611e-5, 1.235e-4, 1.680e+1
0.240, -1.622e-5, 1.232e-4, 1.682e+1
0.241, -1.630e-5, 1.229e-4, 1.684e+1
0.242, -1.639e-5, 1.226e-4, 1.686e+1
0.243, -1.646e-5, 1.222e-4, 1.688e+1
0.244, -1.652e-5, 1.219e-4, 1.690e+1
0.245, -1.658e-5, 1.216e-4, 1.692e+1
0.246, -1.662e-5, 1.212e-4, 1.694e+1
0.247, -1.666e-5, 1.209e-4, 1.696e+1
0.248, -1.670e-5, 1.206e-4, 1.698e+1
0.249, -1.672e-5, 1.202e-4, 1.700e+1
0.250, -1.673e-5, 1.199e-4, 1.702e+1
0.251, -1.674e-5, 1.196e-4, 1.704e+1
0.252, -1.674e-5, 1.192e-4, 1.706e+1
0.253, -1.674e-5, 1.189e-4, 1.708e+1
0.254, -1.673e-5, 1.186e-4, 1.710e+1
0.255, -1.670e-5, 1.182e-4, 1.712e+1
0.256, -1.667e-5, 1.179e-4, 1.714e+1
0.257, -1.663e-5, 1.176e-4, 1.716e+1
0.258, -1.659e-5, 1.172e-4, 1.718e+1
0.259, -1.656e-5, 1.169e-4, 1.720e+1
0.260, -1.652e-5, 1.166e-4, 1.722e+1
0.261, -1.646e-5, 1.162e-4, 1.724e+1
0.262, -1.641e-5, 1.159e-4, 1.726e+1
0.263, -1.635e-5, 1.156e-4, 1.728e+1
0.264, -1.629e-5, 1.153e-4, 1.730e+1
0.265, -1.622e-5, 1.149e-4, 1.732e+1
0.266, -1.614e-5, 1.146e-4, 1.734e+1
0.267, -1.606e-5, 1.143e-4, 1.736e+1
0.268, -1.598e-5, 1.140e-4, 1.738e+1
0.269, -1.590e-5, 1.137e-4, 1.740e+1
0.270, -1.583e-5, 1.133e-4, 1.742e+1
0.271, -1.574e-5, 1.130e-4, 1.744e+1
0.272, -1.564e-5, 1.127e-4, 1.746e+1
0.273, -1.555e-5, 1.124e-4, 1.748e+1
0.274, -1.545e-5, 1.121e-4, 1.750e+1
0.275, -1.536e-5, 1.118e-4, 1.752e+1
0.276, -1.526e-5, 1.115e-4, 1.754e+1
0.277, -1.515e-5, 1.112e-4, 1.756e+1
0.278, -1.505e-5, 1.109e-4, 1.758e+1
0.279, -1.495e-5, 1.106e-4, 1.760e+1
0.280, -1.485e-5, 1.103e-4, 1.762e+1
0.281, -1.474e-5, 1.100e-4, 1.764e+1
0.282, -1.463e-5, 1.097e-4, 1.766e+1
0.283, -1.452e-5, 1.094e-4, 1.768e+1
0.284, -1.441e-5, 1.091e-4, 1.770e+1
0.285, -1.431e-5, 1.088e-4, 1.772e+1
0.286, -1.420e-5, 1.085e-4, 1.774e+1
0.287, -1.409e-5, 1.083e-4, 1.776e+1
0.288, -1.398e-5, 1.080e-4, 1.778e+1
0.289, -1.388e-5, 1.077e-4, 1.780e+1
0.290, -1.376e-5, 1.074e-4, 1.782e+1
0.291, -1.365e-5, 1.072e-4, 1.784e+1
0.292, -1.355e-5, 1.069e-4, 1.786e+1
0.293, -1.343e-5, 1.066e-4, 1.788e+1
0.294, -1.333e-5, 1.064e-4, 1.790e+1
0.295, -1.322e-5, 1.061e-4, 1.792e+1
0.296, -1.311e-5, 1.058e-4, 1.794e+1
0.297, -1.300e-5, 1.056e-4, 1.796e+1
0.298, -1.290e-5, 1.053e-4, 1.798e+1
0.299, -1.279e-5, 1.051e-4, 1.800e+1
0.300, -1.269e-5, 1.048e-4, 1.802e+1
0.301, -1.258e-5, 1.045e-4, 1.804e+1
0.302, -1.248e-5, 1.043e-4, 1.806e+1
0.303, -1.238e-5, 1.041e-4, 1.808e+1
0.304, -1.227e-5, 1.038e-4, 1.810e+1
0.305, -1.217e-5, 1.036e-4, 1.812e+1
0.306, -1.207e-5, 1.033e-4, 1.814e+1
0.307, -1.197e-5, 1.031e-4, 1.816e+1
0.308, -1.188e-5, 1.028e-4, 1.818e+1
0.309, -1.178e-5, 1.026e-4, 1.820e+1
0.310, -1.168e-5, 1.024e-4, 1.822e+1
0.311, -1.158e-5, 1.021e-4, 1.824e+1
0.312, -1.149e-5, 1.019e-4, 1.826e+1
0.313, -1.139e-5, 1.017e-4, 1.828e+1
0.314, -1.130e-5, 1.015e-4, 1.830e+1
0.315, -1.121e-5, 1.012e-4, 1.832e+1
0.316, -1.112e-5, 1.010e-4, 1.834e+1
0.317, -1.103e-5, 1.008e-4, 1.836e+1
0.318, -1.094e-5, 1.006e-4, 1.838e+1
0.319, -1.085e-5, 1.004e-4, 1.840e+1
0.320, -1.077e-5, 1.001e-4, 1.842e+1
0.321, -1.068e-5, 9.993e-5, 1.844e+1
0.322, -1.060e-5, 9.972e-5, 1.846e+1
0.323, -1.051e-5, 9.951e-5, 1.848e+1
0.324, -1.043e-5, 9.930e-5, 1.850e+1
0.325, -1.035e-5, 9.909e-5, 1.852e+1
0.326, -1.027e-5, 9.889e-5, 1.854e+1
0.327, -1.019e-5, 9.868e-5, 1.856e+1
0.328, -1.011e-5, 9.848e-5, 1.858e+1
0.329, -1.003e-5, 9.828e-5, 1.860e+1
0.330, -9.957e-6, 9.808e-5, 1.862e+1
0.331, -9.882e-6, 9.788e-5, 1.864e+1
0.332, -9.806e-6, 9.769e-5, 1.866e+1
0.333, -9.732e-6, 9.749e-5, 1.868e+1
0.334, -9.661e-6, 9.730e-5, 1.870e+1
0.335, -9.589e-6, 9.711e-5, 1.872e+1
0.336, -9.518e-6, 9.692e-5, 1.874e+1
0.337, -9.449e-6, 9.673e-5, 1.876e+1
0.338, -9.379e-6, 9.654e-5, 1.878e+1
0.339, -9.313e-6, 9.635e-5, 1.880e+1
0.340, -9.245e-6, 9.617e-5, 1.882e+1
0.341, -9.181e-6, 9.598e-5, 1.884e+1
0.342, -9.115e-6, 9.580e-5, 1.886e+1
0.343, -9.050e-6, 9.562e-5, 1.888e+1
0.344, -8.986e-6, 9.544e-5, 1.890e+1
0.345, -8.924e-6, 9.526e-5, 1.892e+1
0.346, -8.863e-6, 9.509e-5, 1.894e+1
0.347, -8.802e-6, 9.491e-5, 1.896e+1
0.348, -8.741e-6, 9.473e-5, 1.898e+1
0.349, -8.682e-6, 9.456e-5, 1.900e+1
0.350, -8.623e-6, 9.439e-5, 1.902e+1
0.351, -8.565e-6, 9.422e-5, 1.904e+1
0.352, -8.508e-6, 9.405e-5, 1.906e+1
0.353, -8.453e-6, 9.388e-5, 1.908e+1
0.354, -8.396e-6, 9.371e-5, 1.910e+1
0.355, -8.343e-6, 9.354e-5, 1.912e+1
0.356, -8.288e-6, 9.338e-5, 1.914e+1
0.357, -8.235e-6, 9.321e-5, 1.916e+1
0.358, -8.182e-6, 9.305e-5, 1.918e+1
0.359, -8.126e-6, 9.289e-5, 1.920e+1
0.360, -8.077e-6, 9.272e-5, 1.922e+1
0.361, -8.027e-6, 9.256e-5, 1.924e+1
0.362, -7.977e-6, 9.240e-5, 1.926e+1
0.363, -7.928e-6, 9.225e-5, 1.928e+1
0.364, -7.880e-6, 9.209e-5, 1.930e+1
0.365, -7.831e-6, 9.193e-5, 1.932e+1
0.366, -7.784e-6, 9.178e-5, 1.934e+1
0.367, -7.737e-6, 9.162e-5, 1.936e+1
0.368, -7.691e-6, 9.147e-5, 1.938e+1
0.369, -7.645e-6, 9.131e-5, 1.940e+1
0.370, -7.601e-6, 9.116e-5, 1.942e+1
0.371, -7.556e-6, 9.101e-5, 1.944e+1
0.372, -7.512e-6, 9.086e-5, 1.946e+1
0.373, -7.468e-6, 9.071e-5, 1.948e+1
0.374, -7.426e-6, 9.056e-5, 1.950e+1
0.375, -7.384e-6, 9.042e-5, 1.952e+1
0.376, -7.343e-6, 9.027e-5, 1.954e+1
0.377, -7.301e-6, 9.012e-5, 1.956e+1
0.378, -7.260e-6, 8.998e-5, 1.958e+1
0.379, -7.221e-6, 8.983e-5, 1.960e+1
0.380, -7.181e-6, 8.969e-5, 1.962e+1
0.381, -7.140e-6, 8.955e-5, 1.964e+1
0.382, -7.101e-6, 8.941e-5, 1.966e+1
0.383, -7.063e-6, 8.926e-5, 1.968e+1
0.384, -7.026e-6, 8.912e-5, 1.970e+1
0.385, -6.989e-6, 8.898e-5, 1.972e+1
0.386, -6.951e-6, 8.884e-5, 1.974e+1
0.387, -6.915e-6, 8.871e-5, 1.976e+1
0.388, -6.879e-6, 8.857e-5, 1.978e+1
0.389, -6.843e-6, 8.843e-5, 1.980e+1
0.390, -6.808e-6, 8.830e-5, 1.982e+1
0.391, -6.774e-6, 8.816e-5, 1.984e+1
0.392, -6.740e-6, 8.803e-5, 1.986e+1
0.393, -6.705e-6, 8.789e-5, 1.988e+1
0.394, -6.670e-6, 8.776e-5, 1.990e+1
0.395, -6.639e-6, 8.763e-5, 1.992e+1
0.396, -6.606e-6, 8.749e-5, 1.994e+1
0.397, -6.574e-6, 8.736e-5, 1.996e+1
0.398, -6.542e-6, 8.723e-5, 1.998e+1
0.399, -6.510e-6, 8.710e-5, 2.000e+1
0.400, -6.479e-6, 8.697e-5, 2.002e+1
0.401, -6.448e-6, 8.684e-5, 2.004e+1
0.402, -6.416e-6, 8.671e-5, 2.006e+1
0.403, -6.386e-6, 8.659e-5, 2.008e+1
0.404, -6.357e-6, 8.646e-5, 2.010e+1
0.405, -6.326e-6, 8.633e-5, 2.012e+1
0.406, -6.298e-6, 8.621e-5, 2.014e+1
0.407, -6.269e-6, 8.608e-5, 2.016e+1
0.408, -6.240e-6, 8.596e-5, 2.018e+1
0.409, -6.211e-6, 8.583e-5, 2.020e+1
0.410, -6.172e-6, 8.571e-5, 2.022e+1
0.411, -6.152e-6, 8.559e-5, 2.024e+1
0.412, -6.127e-6, 8.546e-5, 2.026e+1
0.413, -6.100e-6, 8.534e-5, 2.028e+1
0.414, -6.073e-6, 8.522e-5, 2.030e+1
0.415, -6.047e-6, 8.510e-5, 2.032e+1
0.416, -6.022e-6, 8.498e-5, 2.034e+1
0.417, -5.996e-6, 8.486e-5, 2.036e+1
0.418, -5.970e-6, 8.474e-5, 2.038e+1
0.419, -5.944e-6, 8.462e-5, 2.040e+1
0.420, -5.919e-6, 8.450e-5, 2.042e+1
0.421, -5.894e-6, 8.438e-5, 2.044e+1
0.422, -5.870e-6, 8.427e-5, 2.046e+1
0.423, -5.847e-6, 8.415e-5, 2.048e+1
0.424, -5.823e-6, 8.403e-5, 2.050e+1
0.425, -5.799e-6, 8.392e-5, 2.052e+1
0.426, -5.775e-6, 8.380e-5, 2.054e+1
0.427, -5.751e-6, 8.369e-5, 2.056e+1
0.428, -5.728e-6, 8.357e-5, 2.058e+1
0.429, -5.707e-6, 8.346e-5, 2.060e+1
0.430, -5.684e-6, 8.334e-5, 2.062e+1
0.431, -5.661e-6, 8.323e-5, 2.064e+1
0.432, -5.639e-6, 8.312e-5, 2.066e+1
0.433, -5.616e-6, 8.301e-5, 2.068e+1
0.434, -5.594e-6, 8.289e-5, 2.070e+1
0.435, -5.574e-6, 8.278e-5, 2.072e+1
0.436, -5.552e-6, 8.267e-5, 2.074e+1
0.437, -5.530e-6, 8.256e-5, 2.076e+1
0.438, -5.510e-6, 8.245e-5, 2.078e+1
0.439, -5.490e-6, 8.234e-5, 2.080e+1
0.440, -5.470e-6, 8.223e-5, 2.082e+1
0.441, -5.450e-6, 8.212e-5, 2.084e+1
0.442, -5.430e-6, 8.201e-5, 2.086e+1
0.443, -5.410e-6, 8.191e-5, 2.088e+1
0.444, -5.390e-6, 8.180e-5, 2.090e+1
0.445, -5.371e-6, 8.169e-5, 2.092e+1
0.446, -5.352e-6, 8.158e-5, 2.094e+1
0.447, -5.334e-6, 8.148e-5, 2.096e+1
0.448, -5.314e-6, 8.137e-5, 2.098e+1
0.449, -5.296e-6, 8.126e-5, 2.100e+1
0.450, -5.277e-6, 8.116e-5, 2.102e+1
0.451, -5.260e-6, 8.105e-5, 2.104e+1
0.452, -5.242e-6, 8.095e-5, 2.106e+1
0.453, -5.223e-6, 8.084e-5, 2.108e+1
0.454, -5.207e-6, 8.074e-5, 2.110e+1
0.455, -5.189e-6, 8.064e-5, 2.112e+1
0.456, -5.172e-6, 8.053e-5, 2.114e+1
0.457, -5.155e-6, 8.043e-5, 2.116e+1
0.458, -5.138e-6, 8.033e-5, 2.118e+1
0.459, -5.122e-6, 8.022e-5, 2.120e+1
0.460, -5.105e-6, 8.012e-5, 2.122e+1
0.461, -5.086e-6, 8.002e-5, 2.124e+1
0.462, -5.072e-6, 7.992e-5, 2.126e+1
0.463, -5.056e-6, 7.982e-5, 2.128e+1
0.464, -5.040e-6, 7.972e-5, 2.130e+1
0.465, -5.026e-6, 7.962e-5, 2.132e+1
0.466, -5.009e-6, 7.952e-5, 2.134e+1
0.467, -4.994e-6, 7.942e-5, 2.136e+1
0.468, -4.980e-6, 7.932e-5, 2.138e+1
0.469, -4.965e-6, 7.922e-5, 2.140e+1
0.470, -4.949e-6, 7.912e-5, 2.142e+1
0.471, -4.936e-6, 7.902e-5, 2.144e+1
0.472, -4.921e-6, 7.892e-5, 2.146e+1
0.473, -4.907e-6, 7.882e-5, 2.148e+1
0.474, -4.894e-6, 7.873e-5, 2.150e+1
0.475, -4.879e-6, 7.863e-5, 2.152e+1
0.476, -4.866e-6, 7.853e-5, 2.154e+1
0.477, -4.852e-6, 7.843e-5, 2.156e+1
0.478, -4.839e-6, 7.834e-5, 2.158e+1
0.479, -4.824e-6, 7.824e-5, 2.160e+1
0.480, -4.812e-6, 7.814e-5, 2.162e+1
0.481, -4.800e-6, 7.805e-5, 2.164e+1
0.482, -4.787e-6, 7.795e-5, 2.166e+1
0.483, -4.774e-6, 7.786e-5, 2.168e+1
0.484, -4.761e-6, 7.776e-5, 2.170e+1
0.485, -4.749e-6, 7.767e-5, 2.172e+1
0.486, -4.737e-6, 7.757e-5, 2.174e+1
0.487, -4.725e-6, 7.748e-5, 2.176e+1
0.488, -4.714e-6, 7.738e-5, 2.178e+1
0.489, -4.703e-6, 7.729e-5, 2.180e+1
0.490, -4.691e-6, 7.720e-5, 2.182e+1
0.491, -4.680e-6, 7.710e-5, 2.184e+1
0.492, -4.669e-6, 7.701e-5, 2.186e+1
0.493, -4.657e-6, 7.692e-5, 2.188e+1
0.494, -4.648e-6, 7.682e-5, 2.190e+1
0.495, -4.637e-6, 7.673e-5, 2.192e+1
0.496, -4.625e-6, 7.664e-5, 2.194e+1
0.497, -4.616e-6, 7.654e-5, 2.196e+1
0.498, -4.605e-6, 7.645e-5, 2.198e+1
0.499, -4.596e-6, 7.636e-5, 2.200e+1
0.500, -4.586e-6, 7.627e-5, 2.202e+1
0.501, -4.576e-6, 7.618e-5, 2.204e+1
0.502, -4.566e-6, 7.609e-5, 2.206e+1
0.503, -4.557e-6, 7.600e-5, 2.208e+1
0.504, -4.547e-6, 7.590e-5, 2.210e+1
0.505, -4.538e-6, 7.581e-5, 2.212e+1
0.506, -4.530e-6, 7.572e-5, 2.214e+1
0.507, -4.521e-6, 7.563e-5, 2.216e+1
0.508, -4.512e-6, 7.554e-5, 2.218e+1
0.509, -4.503e-6, 7.545e-5, 2.220e+1
0.510, -4.495e-6, 7.536e-5, 2.222e+1
0.511, -4.487e-6, 7.527e-5, 2.224e+1
0.512, -4.480e-6, 7.518e-5, 2.226e+1
0.513, -4.472e-6, 7.509e-5, 2.228e+1
0.514, -4.463e-6, 7.500e-5, 2.230e+1
0.515, -4.457e-6, 7.491e-5, 2.232e+1
0.516, -4.449e-6, 7.483e-5, 2.234e+1
0.517, -4.440e-6, 7.474e-5, 2.236e+1
0.518, -4.435e-6, 7.465e-5, 2.238e+1
0.519, -4.428e-6, 7.456e-5, 2.240e+1
0.520, -4.419e-6, 7.447e-5, 2.242e+1
0.521, -4.413e-6, 7.438e-5, 2.244e+1
0.522, -4.407e-6, 7.430e-5, 2.246e+1
0.523, -4.401e-6, 7.421e-5, 2.248e+1
0.524, -4.394e-6, 7.412e-5, 2.250e+1
0.525, -4.388e-6, 7.403e-5, 2.252e+1
0.526, -4.381e-6, 7.394e-5, 2.254e+1
0.527, -4.376e-6, 7.386e-5, 2.256e+1
0.528, -4.370e-6, 7.377e-5, 2.258e+1
0.529, -4.364e-6, 7.368e-5, 2.260e+1
0.530, -4.358e-6, 7.359e-5, 2.262e+1
0.531, -4.354e-6, 7.351e-5, 2.264e+1
0.532, -4.349e-6, 7.342e-5, 2.266e+1
0.533, -4.343e-6, 7.333e-5, 2.268e+1
0.534, -4.338e-6, 7.325e-5, 2.270e+1
0.535, -4.334e-6, 7.316e-5, 2.272e+1
0.536, -4.328e-6, 7.307e-5, 2.274e+1
0.537, -4.325e-6, 7.299e-5, 2.276e+1
0.538, -4.317e-6, 7.290e-5, 2.278e+1
0.539, -4.315e-6, 7.281e-5, 2.280e+1
0.540, -4.313e-6, 7.273e-5, 2.282e+1
0.541, -4.309e-6, 7.264e-5, 2.284e+1
0.542, -4.306e-6, 7.256e-5, 2.286e+1
0.543, -4.302e-6, 7.247e-5, 2.288e+1
0.544, -4.298e-6, 7.238e-5, 2.290e+1
0.545, -4.295e-6, 7.230e-5, 2.292e+1
0.546, -4.291e-6, 7.221e-5, 2.294e+1
0.547, -4.288e-6, 7.213e-5, 2.296e+1
0.548, -4.285e-6, 7.204e-5, 2.298e+1
0.549, -4.283e-6, 7.195e-5, 2.300e+1
0.550, -4.280e-6, 7.187e-5, 2.302e+1
0.551, -4.277e-6, 7.178e-5, 2.304e+1
0.552, -4.275e-6, 7.170e-5, 2.306e+1
0.553, -4.272e-6, 7.161e-5, 2.308e+1
0.554, -4.270e-6, 7.153e-5, 2.310e+1
0.555, -4.267e-6, 7.144e-5, 2.312e+1
0.556, -4.264e-6, 7.136e-5, 2.314e+1
0.557, -4.264e-6, 7.127e-5, 2.316e+1
0.558, -4.262e-6, 7.119e-5, 2.318e+1
0.559, -4.260e-6, 7.110e-5, 2.320e+1
0.560, -4.258e-6, 7.102e-5, 2.322e+1
0.561, -4.257e-6, 7.093e-5, 2.324e+1
0.562, -4.255e-6, 7.085e-5, 2.326e+1
0.563, -4.253e-6, 7.076e-5, 2.328e+1
0.564, -4.252e-6, 7.068e-5, 2.330e+1
0.565, -4.251e-6, 7.059e-5, 2.332e+1
0.566, -4.251e-6, 7.051e-5, 2.334e+1
0.567, -4.250e-6, 7.042e-5, 2.336e+1
0.568, -4.251e-6, 7.034e-5, 2.338e+1
0.569, -4.250e-6, 7.025e-5, 2.340e+1
0.570, -4.251e-6, 7.017e-5, 2.342e+1
0.571, -4.251e-6, 7.008e-5, 2.344e+1
0.572, -4.251e-6, 7.000e-5, 2.346e+1
0.573, -4.251e-6, 6.991e-5, 2.348e+1
0.574, -4.251e-6, 6.983e-5, 2.350e+1
0.575, -4.251e-6, 6.974e-5, 2.352e+1
0.576, -4.252e-6, 6.966e-5, 2.354e+1
0.577, -4.253e-6, 6.957e-5, 2.356e+1
0.578, -4.254e-6, 6.949e-5, 2.358e+1
0.579, -4.255e-6, 6.940e-5, 2.360e+1
0.580, -4.256e-6, 6.932e-5, 2.362e+1
0.581, -4.257e-6, 6.923e-5, 2.364e+1
0.582, -4.259e-6, 6.914e-5, 2.366e+1
0.583, -4.260e-6, 6.906e-5, 2.368e+1
0.584, -4.261e-6, 6.897e-5, 2.370e+1
0.585, -4.263e-6, 6.889e-5, 2.372e+1
0.586, -4.265e-6, 6.880e-5, 2.374e+1
0.587, -4.268e-6, 6.872e-5, 2.376e+1
0.588, -4.270e-6, 6.863e-5, 2.378e+1
0.589, -4.272e-6, 6.855e-5, 2.380e+1
0.590, -4.275e-6, 6.846e-5, 2.382e+1
0.591, -4.277e-6, 6.838e-5, 2.384e+1
0.592, -4.280e-6, 6.829e-5, 2.386e+1
0.593, -4.282e-6, 6.821e-5, 2.388e+1
0.594, -4.285e-6, 6.812e-5, 2.390e+1
0.595, -4.287e-6, 6.803e-5, 2.392e+1
0.596, -4.292e-6, 6.795e-5, 2.394e+1
0.597, -4.294e-6, 6.786e-5, 2.396e+1
0.598, -4.298e-6, 6.778e-5, 2.398e+1
0.599, -4.301e-6, 6.769e-5, 2.400e+1
