May 18, 2026   15:46:23
Cyclic Voltammetry
File: 0_6ml.bin
Data Source:  Experiment
Instrument Model:  CHI660D
Header: 
Note: 

Init E (V) = 0.6
High E (V) = 0.6
Low E (V) = 0
Init P/N = N
Scan Rate (V/s) = 0.05
Segment = 2
Sample Interval (V) = 0.001
Quiet Time (sec) = 2
Sensitivity (A/V) = 1e-5

Segment 1:
Ep = 0.182V
Eh = 0.242V
ip = 3.523e-5A
Ah = 4.614e-5C

Segment 2:
Ep = 0.251V
Eh = 0.193V
ip = -3.010e-5A
Ah = -3.743e-5C

Potential/V, Current/A, Charge/C, Time/s

Segment 1:
0.600, -1.007e-6, -2.014e-8, 2.000e-2
0.599, -8.657e-7, -3.745e-8, 4.000e-2
0.598, -8.134e-7, -5.372e-8, 6.000e-2
0.597, -7.833e-7, -6.939e-8, 8.000e-2
0.596, -7.595e-7, -8.458e-8, 1.000e-1
0.595, -7.370e-7, -9.932e-8, 1.200e-1
0.594, -7.144e-7, -1.136e-7, 1.400e-1
0.593, -6.951e-7, -1.275e-7, 1.600e-1
0.592, -6.762e-7, -1.410e-7, 1.800e-1
0.591, -6.575e-7, -1.542e-7, 2.000e-1
0.590, -6.394e-7, -1.670e-7, 2.200e-1
0.589, -6.230e-7, -1.794e-7, 2.400e-1
0.588, -6.069e-7, -1.916e-7, 2.600e-1
0.587, -5.907e-7, -2.034e-7, 2.800e-1
0.586, -5.764e-7, -2.149e-7, 3.000e-1
0.585, -5.606e-7, -2.261e-7, 3.200e-1
0.584, -5.460e-7, -2.370e-7, 3.400e-1
0.583, -5.313e-7, -2.477e-7, 3.600e-1
0.582, -5.166e-7, -2.580e-7, 3.800e-1
0.581, -5.028e-7, -2.681e-7, 4.000e-1
0.580, -4.896e-7, -2.779e-7, 4.200e-1
0.579, -4.764e-7, -2.874e-7, 4.400e-1
0.578, -4.643e-7, -2.967e-7, 4.600e-1
0.577, -4.528e-7, -3.057e-7, 4.800e-1
0.576, -4.397e-7, -3.145e-7, 5.000e-1
0.575, -4.270e-7, -3.231e-7, 5.200e-1
0.574, -4.160e-7, -3.314e-7, 5.400e-1
0.573, -4.033e-7, -3.394e-7, 5.600e-1
0.572, -3.923e-7, -3.473e-7, 5.800e-1
0.571, -3.824e-7, -3.549e-7, 6.000e-1
0.570, -3.713e-7, -3.624e-7, 6.200e-1
0.569, -3.595e-7, -3.696e-7, 6.400e-1
0.568, -3.498e-7, -3.765e-7, 6.600e-1
0.567, -3.397e-7, -3.833e-7, 6.800e-1
0.566, -3.302e-7, -3.899e-7, 7.000e-1
0.565, -3.193e-7, -3.963e-7, 7.200e-1
0.564, -3.097e-7, -4.025e-7, 7.400e-1
0.563, -3.034e-7, -4.086e-7, 7.600e-1
0.562, -2.914e-7, -4.144e-7, 7.800e-1
0.561, -2.821e-7, -4.201e-7, 8.000e-1
0.560, -2.720e-7, -4.255e-7, 8.200e-1
0.559, -2.639e-7, -4.308e-7, 8.400e-1
0.558, -2.548e-7, -4.359e-7, 8.600e-1
0.557, -2.453e-7, -4.408e-7, 8.800e-1
0.556, -2.373e-7, -4.455e-7, 9.000e-1
0.555, -2.290e-7, -4.501e-7, 9.200e-1
0.554, -2.205e-7, -4.545e-7, 9.400e-1
0.553, -2.122e-7, -4.588e-7, 9.600e-1
0.552, -2.044e-7, -4.628e-7, 9.800e-1
0.551, -1.957e-7, -4.668e-7, 1.000e+0
0.550, -1.880e-7, -4.705e-7, 1.020e+0
0.549, -1.804e-7, -4.741e-7, 1.040e+0
0.548, -1.729e-7, -4.776e-7, 1.060e+0
0.547, -1.669e-7, -4.809e-7, 1.080e+0
0.546, -1.585e-7, -4.841e-7, 1.100e+0
0.545, -1.513e-7, -4.871e-7, 1.120e+0
0.544, -1.432e-7, -4.900e-7, 1.140e+0
0.543, -1.358e-7, -4.927e-7, 1.160e+0
0.542, -1.301e-7, -4.953e-7, 1.180e+0
0.541, -1.227e-7, -4.978e-7, 1.200e+0
0.540, -1.159e-7, -5.001e-7, 1.220e+0
0.539, -1.106e-7, -5.023e-7, 1.240e+0
0.538, -1.035e-7, -5.044e-7, 1.260e+0
0.537, -9.684e-8, -5.063e-7, 1.280e+0
0.536, -9.009e-8, -5.081e-7, 1.300e+0
0.535, -8.295e-8, -5.098e-7, 1.320e+0
0.534, -7.767e-8, -5.113e-7, 1.340e+0
0.533, -7.171e-8, -5.127e-7, 1.360e+0
0.532, -6.377e-8, -5.140e-7, 1.380e+0
0.531, -5.753e-8, -5.152e-7, 1.400e+0
0.530, -5.233e-8, -5.162e-7, 1.420e+0
0.529, -4.689e-8, -5.172e-7, 1.440e+0
0.528, -4.050e-8, -5.180e-7, 1.460e+0
0.527, -3.487e-8, -5.187e-7, 1.480e+0
0.526, -2.971e-8, -5.193e-7, 1.500e+0
0.525, -2.326e-8, -5.197e-7, 1.520e+0
0.524, -1.763e-8, -5.201e-7, 1.540e+0
0.523, -1.344e-8, -5.203e-7, 1.560e+0
0.522, -6.819e-9, -5.205e-7, 1.580e+0
0.521, -2.132e-9, -5.205e-7, 1.600e+0
0.520, 2.427e-9, -5.205e-7, 1.620e+0
0.519, 8.881e-9, -5.203e-7, 1.640e+0
0.518, 1.394e-8, -5.200e-7, 1.660e+0
0.517, 1.934e-8, -5.196e-7, 1.680e+0
0.516, 2.366e-8, -5.192e-7, 1.700e+0
0.515, 2.855e-8, -5.186e-7, 1.720e+0
0.514, 3.441e-8, -5.179e-7, 1.740e+0
0.513, 3.787e-8, -5.171e-7, 1.760e+0
0.512, 4.514e-8, -5.162e-7, 1.780e+0
0.511, 4.993e-8, -5.152e-7, 1.800e+0
0.510, 5.327e-8, -5.142e-7, 1.820e+0
0.509, 5.793e-8, -5.130e-7, 1.840e+0
0.508, 6.250e-8, -5.118e-7, 1.860e+0
0.507, 6.738e-8, -5.104e-7, 1.880e+0
0.506, 7.251e-8, -5.090e-7, 1.900e+0
0.505, 7.630e-8, -5.074e-7, 1.920e+0
0.504, 7.983e-8, -5.058e-7, 1.940e+0
0.503, 8.586e-8, -5.041e-7, 1.960e+0
0.502, 8.917e-8, -5.023e-7, 1.980e+0
0.501, 9.383e-8, -5.005e-7, 2.000e+0
0.500, 9.828e-8, -4.985e-7, 2.020e+0
0.499, 1.022e-7, -4.965e-7, 2.040e+0
0.498, 1.071e-7, -4.943e-7, 2.060e+0
0.497, 1.100e-7, -4.921e-7, 2.080e+0
0.496, 1.148e-7, -4.898e-7, 2.100e+0
0.495, 1.202e-7, -4.874e-7, 2.120e+0
0.494, 1.234e-7, -4.850e-7, 2.140e+0
0.493, 1.276e-7, -4.824e-7, 2.160e+0
0.492, 1.317e-7, -4.798e-7, 2.180e+0
0.491, 1.348e-7, -4.771e-7, 2.200e+0
0.490, 1.392e-7, -4.743e-7, 2.220e+0
0.489, 1.422e-7, -4.714e-7, 2.240e+0
0.488, 1.471e-7, -4.685e-7, 2.260e+0
0.487, 1.515e-7, -4.655e-7, 2.280e+0
0.486, 1.544e-7, -4.624e-7, 2.300e+0
0.485, 1.585e-7, -4.592e-7, 2.320e+0
0.484, 1.627e-7, -4.560e-7, 2.340e+0
0.483, 1.664e-7, -4.526e-7, 2.360e+0
0.482, 1.703e-7, -4.492e-7, 2.380e+0
0.481, 1.736e-7, -4.458e-7, 2.400e+0
0.480, 1.771e-7, -4.422e-7, 2.420e+0
0.479, 1.817e-7, -4.386e-7, 2.440e+0
0.478, 1.846e-7, -4.349e-7, 2.460e+0
0.477, 1.887e-7, -4.311e-7, 2.480e+0
0.476, 1.915e-7, -4.273e-7, 2.500e+0
0.475, 1.951e-7, -4.234e-7, 2.520e+0
0.474, 1.985e-7, -4.194e-7, 2.540e+0
0.473, 2.031e-7, -4.153e-7, 2.560e+0
0.472, 2.052e-7, -4.112e-7, 2.580e+0
0.471, 2.088e-7, -4.071e-7, 2.600e+0
0.470, 2.125e-7, -4.028e-7, 2.620e+0
0.469, 2.168e-7, -3.985e-7, 2.640e+0
0.468, 2.198e-7, -3.941e-7, 2.660e+0
0.467, 2.233e-7, -3.896e-7, 2.680e+0
0.466, 2.263e-7, -3.851e-7, 2.700e+0
0.465, 2.294e-7, -3.805e-7, 2.720e+0
0.464, 2.324e-7, -3.759e-7, 2.740e+0
0.463, 2.364e-7, -3.711e-7, 2.760e+0
0.462, 2.390e-7, -3.663e-7, 2.780e+0
0.461, 2.405e-7, -3.615e-7, 2.800e+0
0.460, 2.443e-7, -3.566e-7, 2.820e+0
0.459, 2.487e-7, -3.517e-7, 2.840e+0
0.458, 2.523e-7, -3.466e-7, 2.860e+0
0.457, 2.559e-7, -3.415e-7, 2.880e+0
0.456, 2.586e-7, -3.363e-7, 2.900e+0
0.455, 2.631e-7, -3.311e-7, 2.920e+0
0.454, 2.657e-7, -3.258e-7, 2.940e+0
0.453, 2.691e-7, -3.204e-7, 2.960e+0
0.452, 2.719e-7, -3.149e-7, 2.980e+0
0.451, 2.748e-7, -3.094e-7, 3.000e+0
0.450, 2.791e-7, -3.039e-7, 3.020e+0
0.449, 2.804e-7, -2.983e-7, 3.040e+0
0.448, 2.846e-7, -2.926e-7, 3.060e+0
0.447, 2.884e-7, -2.868e-7, 3.080e+0
0.446, 2.909e-7, -2.810e-7, 3.100e+0
0.445, 2.956e-7, -2.751e-7, 3.120e+0
0.444, 2.979e-7, -2.691e-7, 3.140e+0
0.443, 3.003e-7, -2.631e-7, 3.160e+0
0.442, 3.042e-7, -2.570e-7, 3.180e+0
0.441, 3.078e-7, -2.509e-7, 3.200e+0
0.440, 3.104e-7, -2.447e-7, 3.220e+0
0.439, 3.138e-7, -2.384e-7, 3.240e+0
0.438, 3.168e-7, -2.320e-7, 3.260e+0
0.437, 3.203e-7, -2.256e-7, 3.280e+0
0.436, 3.238e-7, -2.192e-7, 3.300e+0
0.435, 3.254e-7, -2.127e-7, 3.320e+0
0.434, 3.303e-7, -2.061e-7, 3.340e+0
0.433, 3.336e-7, -1.994e-7, 3.360e+0
0.432, 3.373e-7, -1.926e-7, 3.380e+0
0.431, 3.403e-7, -1.858e-7, 3.400e+0
0.430, 3.428e-7, -1.790e-7, 3.420e+0
0.429, 3.463e-7, -1.720e-7, 3.440e+0
0.428, 3.502e-7, -1.650e-7, 3.460e+0
0.427, 3.530e-7, -1.580e-7, 3.480e+0
0.426, 3.572e-7, -1.508e-7, 3.500e+0
0.425, 3.601e-7, -1.436e-7, 3.520e+0
0.424, 3.635e-7, -1.364e-7, 3.540e+0
0.423, 3.672e-7, -1.290e-7, 3.560e+0
0.422, 3.696e-7, -1.216e-7, 3.580e+0
0.421, 3.738e-7, -1.142e-7, 3.600e+0
0.420, 3.769e-7, -1.066e-7, 3.620e+0
0.419, 3.810e-7, -9.900e-8, 3.640e+0
0.418, 3.849e-7, -9.130e-8, 3.660e+0
0.417, 3.889e-7, -8.352e-8, 3.680e+0
0.416, 3.919e-7, -7.568e-8, 3.700e+0
0.415, 3.953e-7, -6.778e-8, 3.720e+0
0.414, 3.998e-7, -5.978e-8, 3.740e+0
0.413, 4.041e-7, -5.170e-8, 3.760e+0
0.412, 4.075e-7, -4.355e-8, 3.780e+0
0.411, 4.096e-7, -3.536e-8, 3.800e+0
0.410, 4.104e-7, -2.715e-8, 3.820e+0
0.409, 4.098e-7, -1.895e-8, 3.840e+0
0.408, 4.207e-7, -1.054e-8, 3.860e+0
0.407, 4.258e-7, -2.022e-9, 3.880e+0
0.406, 4.305e-7, 6.587e-9, 3.900e+0
0.405, 4.343e-7, 1.527e-8, 3.920e+0
0.404, 4.402e-7, 2.408e-8, 3.940e+0
0.403, 4.445e-7, 3.297e-8, 3.960e+0
0.402, 4.493e-7, 4.195e-8, 3.980e+0
0.401, 4.528e-7, 5.101e-8, 4.000e+0
0.400, 4.570e-7, 6.015e-8, 4.020e+0
0.399, 4.633e-7, 6.942e-8, 4.040e+0
0.398, 4.679e-7, 7.878e-8, 4.060e+0
0.397, 4.731e-7, 8.824e-8, 4.080e+0
0.396, 4.764e-7, 9.777e-8, 4.100e+0
0.395, 4.828e-7, 1.074e-7, 4.120e+0
0.394, 4.887e-7, 1.172e-7, 4.140e+0
0.393, 4.937e-7, 1.271e-7, 4.160e+0
0.392, 4.995e-7, 1.371e-7, 4.180e+0
0.391, 5.052e-7, 1.472e-7, 4.200e+0
0.390, 5.119e-7, 1.574e-7, 4.220e+0
0.389, 5.160e-7, 1.677e-7, 4.240e+0
0.388, 5.228e-7, 1.782e-7, 4.260e+0
0.387, 5.288e-7, 1.888e-7, 4.280e+0
0.386, 5.353e-7, 1.995e-7, 4.300e+0
0.385, 5.415e-7, 2.103e-7, 4.320e+0
0.384, 5.467e-7, 2.212e-7, 4.340e+0
0.383, 5.547e-7, 2.323e-7, 4.360e+0
0.382, 5.624e-7, 2.436e-7, 4.380e+0
0.381, 5.695e-7, 2.550e-7, 4.400e+0
0.380, 5.766e-7, 2.665e-7, 4.420e+0
0.379, 5.834e-7, 2.782e-7, 4.440e+0
0.378, 5.909e-7, 2.900e-7, 4.460e+0
0.377, 5.997e-7, 3.020e-7, 4.480e+0
0.376, 6.080e-7, 3.141e-7, 4.500e+0
0.375, 6.177e-7, 3.265e-7, 4.520e+0
0.374, 6.262e-7, 3.390e-7, 4.540e+0
0.373, 6.337e-7, 3.517e-7, 4.560e+0
0.372, 6.442e-7, 3.646e-7, 4.580e+0
0.371, 6.535e-7, 3.776e-7, 4.600e+0
0.370, 6.628e-7, 3.909e-7, 4.620e+0
0.369, 6.729e-7, 4.044e-7, 4.640e+0
0.368, 6.831e-7, 4.180e-7, 4.660e+0
0.367, 6.946e-7, 4.319e-7, 4.680e+0
0.366, 7.051e-7, 4.460e-7, 4.700e+0
0.365, 7.180e-7, 4.604e-7, 4.720e+0
0.364, 7.296e-7, 4.750e-7, 4.740e+0
0.363, 7.401e-7, 4.898e-7, 4.760e+0
0.362, 7.542e-7, 5.048e-7, 4.780e+0
0.361, 7.669e-7, 5.202e-7, 4.800e+0
0.360, 7.799e-7, 5.358e-7, 4.820e+0
0.359, 7.933e-7, 5.516e-7, 4.840e+0
0.358, 8.037e-7, 5.677e-7, 4.860e+0
0.357, 8.208e-7, 5.841e-7, 4.880e+0
0.356, 8.361e-7, 6.009e-7, 4.900e+0
0.355, 8.532e-7, 6.179e-7, 4.920e+0
0.354, 8.689e-7, 6.353e-7, 4.940e+0
0.353, 8.854e-7, 6.530e-7, 4.960e+0
0.352, 9.037e-7, 6.711e-7, 4.980e+0
0.351, 9.204e-7, 6.895e-7, 5.000e+0
0.350, 9.385e-7, 7.083e-7, 5.020e+0
0.349, 9.586e-7, 7.274e-7, 5.040e+0
0.348, 9.779e-7, 7.470e-7, 5.060e+0
0.347, 9.970e-7, 7.669e-7, 5.080e+0
0.346, 1.019e-6, 7.873e-7, 5.100e+0
0.345, 1.043e-6, 8.082e-7, 5.120e+0
0.344, 1.064e-6, 8.294e-7, 5.140e+0
0.343, 1.088e-6, 8.512e-7, 5.160e+0
0.342, 1.112e-6, 8.734e-7, 5.180e+0
0.341, 1.137e-6, 8.962e-7, 5.200e+0
0.340, 1.164e-6, 9.195e-7, 5.220e+0
0.339, 1.190e-6, 9.433e-7, 5.240e+0
0.338, 1.218e-6, 9.676e-7, 5.260e+0
0.337, 1.246e-6, 9.926e-7, 5.280e+0
0.336, 1.276e-6, 1.018e-6, 5.300e+0
0.335, 1.308e-6, 1.044e-6, 5.320e+0
0.334, 1.340e-6, 1.071e-6, 5.340e+0
0.333, 1.373e-6, 1.099e-6, 5.360e+0
0.332, 1.405e-6, 1.127e-6, 5.380e+0
0.331, 1.442e-6, 1.155e-6, 5.400e+0
0.330, 1.478e-6, 1.185e-6, 5.420e+0
0.329, 1.516e-6, 1.215e-6, 5.440e+0
0.328, 1.556e-6, 1.246e-6, 5.460e+0
0.327, 1.598e-6, 1.278e-6, 5.480e+0
0.326, 1.640e-6, 1.311e-6, 5.500e+0
0.325, 1.683e-6, 1.345e-6, 5.520e+0
0.324, 1.729e-6, 1.379e-6, 5.540e+0
0.323, 1.775e-6, 1.415e-6, 5.560e+0
0.322, 1.824e-6, 1.451e-6, 5.580e+0
0.321, 1.875e-6, 1.489e-6, 5.600e+0
0.320, 1.928e-6, 1.528e-6, 5.620e+0
0.319, 1.984e-6, 1.567e-6, 5.640e+0
0.318, 2.038e-6, 1.608e-6, 5.660e+0
0.317, 2.096e-6, 1.650e-6, 5.680e+0
0.316, 2.153e-6, 1.693e-6, 5.700e+0
0.315, 2.217e-6, 1.737e-6, 5.720e+0
0.314, 2.284e-6, 1.783e-6, 5.740e+0
0.313, 2.349e-6, 1.830e-6, 5.760e+0
0.312, 2.419e-6, 1.878e-6, 5.780e+0
0.311, 2.489e-6, 1.928e-6, 5.800e+0
0.310, 2.564e-6, 1.979e-6, 5.820e+0
0.309, 2.642e-6, 2.032e-6, 5.840e+0
0.308, 2.717e-6, 2.087e-6, 5.860e+0
0.307, 2.804e-6, 2.143e-6, 5.880e+0
0.306, 2.889e-6, 2.200e-6, 5.900e+0
0.305, 2.977e-6, 2.260e-6, 5.920e+0
0.304, 3.066e-6, 2.321e-6, 5.940e+0
0.303, 3.160e-6, 2.384e-6, 5.960e+0
0.302, 3.254e-6, 2.450e-6, 5.980e+0
0.301, 3.358e-6, 2.517e-6, 6.000e+0
0.300, 3.463e-6, 2.586e-6, 6.020e+0
0.299, 3.566e-6, 2.657e-6, 6.040e+0
0.298, 3.677e-6, 2.731e-6, 6.060e+0
0.297, 3.793e-6, 2.807e-6, 6.080e+0
0.296, 3.916e-6, 2.885e-6, 6.100e+0
0.295, 4.036e-6, 2.966e-6, 6.120e+0
0.294, 4.163e-6, 3.049e-6, 6.140e+0
0.293, 4.296e-6, 3.135e-6, 6.160e+0
0.292, 4.429e-6, 3.223e-6, 6.180e+0
0.291, 4.566e-6, 3.315e-6, 6.200e+0
0.290, 4.712e-6, 3.409e-6, 6.220e+0
0.289, 4.862e-6, 3.506e-6, 6.240e+0
0.288, 5.019e-6, 3.607e-6, 6.260e+0
0.287, 5.179e-6, 3.710e-6, 6.280e+0
0.286, 5.339e-6, 3.817e-6, 6.300e+0
0.285, 5.507e-6, 3.927e-6, 6.320e+0
0.284, 5.677e-6, 4.041e-6, 6.340e+0
0.283, 5.860e-6, 4.158e-6, 6.360e+0
0.282, 6.046e-6, 4.279e-6, 6.380e+0
0.281, 6.229e-6, 4.403e-6, 6.400e+0
0.280, 6.428e-6, 4.532e-6, 6.420e+0
0.279, 6.627e-6, 4.664e-6, 6.440e+0
0.278, 6.836e-6, 4.801e-6, 6.460e+0
0.277, 7.050e-6, 4.942e-6, 6.480e+0
0.276, 7.269e-6, 5.088e-6, 6.500e+0
0.275, 7.497e-6, 5.237e-6, 6.520e+0
0.274, 7.725e-6, 5.392e-6, 6.540e+0
0.273, 7.963e-6, 5.551e-6, 6.560e+0
0.272, 8.213e-6, 5.715e-6, 6.580e+0
0.271, 8.463e-6, 5.885e-6, 6.600e+0
0.270, 8.715e-6, 6.059e-6, 6.620e+0
0.269, 8.983e-6, 6.239e-6, 6.640e+0
0.268, 9.266e-6, 6.424e-6, 6.660e+0
0.267, 9.547e-6, 6.615e-6, 6.680e+0
0.266, 9.816e-6, 6.811e-6, 6.700e+0
0.265, 1.011e-5, 7.014e-6, 6.720e+0
0.264, 1.042e-5, 7.222e-6, 6.740e+0
0.263, 1.072e-5, 7.437e-6, 6.760e+0
0.262, 1.104e-5, 7.657e-6, 6.780e+0
0.261, 1.136e-5, 7.884e-6, 6.800e+0
0.260, 1.168e-5, 8.118e-6, 6.820e+0
0.259, 1.202e-5, 8.358e-6, 6.840e+0
0.258, 1.236e-5, 8.606e-6, 6.860e+0
0.257, 1.269e-5, 8.859e-6, 6.880e+0
0.256, 1.304e-5, 9.120e-6, 6.900e+0
0.255, 1.339e-5, 9.388e-6, 6.920e+0
0.254, 1.376e-5, 9.663e-6, 6.940e+0
0.253, 1.415e-5, 9.946e-6, 6.960e+0
0.252, 1.452e-5, 1.024e-5, 6.980e+0
0.251, 1.490e-5, 1.053e-5, 7.000e+0
0.250, 1.529e-5, 1.084e-5, 7.020e+0
0.249, 1.570e-5, 1.115e-5, 7.040e+0
0.248, 1.611e-5, 1.148e-5, 7.060e+0
0.247, 1.651e-5, 1.181e-5, 7.080e+0
0.246, 1.692e-5, 1.215e-5, 7.100e+0
0.245, 1.734e-5, 1.249e-5, 7.120e+0
0.244, 1.777e-5, 1.285e-5, 7.140e+0
0.243, 1.820e-5, 1.321e-5, 7.160e+0
0.242, 1.863e-5, 1.358e-5, 7.180e+0
0.241, 1.906e-5, 1.397e-5, 7.200e+0
0.240, 1.949e-5, 1.436e-5, 7.220e+0
0.239, 1.993e-5, 1.475e-5, 7.240e+0
0.238, 2.037e-5, 1.516e-5, 7.260e+0
0.237, 2.084e-5, 1.558e-5, 7.280e+0
0.236, 2.128e-5, 1.600e-5, 7.300e+0
0.235, 2.173e-5, 1.644e-5, 7.320e+0
0.234, 2.218e-5, 1.688e-5, 7.340e+0
0.233, 2.263e-5, 1.733e-5, 7.360e+0
0.232, 2.308e-5, 1.780e-5, 7.380e+0
0.231, 2.352e-5, 1.827e-5, 7.400e+0
0.230, 2.396e-5, 1.875e-5, 7.420e+0
0.229, 2.440e-5, 1.923e-5, 7.440e+0
0.228, 2.485e-5, 1.973e-5, 7.460e+0
0.227, 2.531e-5, 2.024e-5, 7.480e+0
0.226, 2.574e-5, 2.075e-5, 7.500e+0
0.225, 2.618e-5, 2.127e-5, 7.520e+0
0.224, 2.661e-5, 2.181e-5, 7.540e+0
0.223, 2.704e-5, 2.235e-5, 7.560e+0
0.222, 2.747e-5, 2.290e-5, 7.580e+0
0.221, 2.789e-5, 2.346e-5, 7.600e+0
0.220, 2.830e-5, 2.402e-5, 7.620e+0
0.219, 2.870e-5, 2.460e-5, 7.640e+0
0.218, 2.911e-5, 2.518e-5, 7.660e+0
0.217, 2.951e-5, 2.577e-5, 7.680e+0
0.216, 2.990e-5, 2.637e-5, 7.700e+0
0.215, 3.027e-5, 2.697e-5, 7.720e+0
0.214, 3.062e-5, 2.758e-5, 7.740e+0
0.213, 3.097e-5, 2.820e-5, 7.760e+0
0.212, 3.132e-5, 2.883e-5, 7.780e+0
0.211, 3.165e-5, 2.946e-5, 7.800e+0
0.210, 3.197e-5, 3.010e-5, 7.820e+0
0.209, 3.230e-5, 3.075e-5, 7.840e+0
0.208, 3.261e-5, 3.140e-5, 7.860e+0
0.207, 3.291e-5, 3.206e-5, 7.880e+0
0.206, 3.319e-5, 3.272e-5, 7.900e+0
0.205, 3.349e-5, 3.339e-5, 7.920e+0
0.204, 3.381e-5, 3.407e-5, 7.940e+0
0.203, 3.404e-5, 3.475e-5, 7.960e+0
0.202, 3.425e-5, 3.543e-5, 7.980e+0
0.201, 3.447e-5, 3.612e-5, 8.000e+0
0.200, 3.468e-5, 3.682e-5, 8.020e+0
0.199, 3.488e-5, 3.751e-5, 8.040e+0
0.198, 3.507e-5, 3.822e-5, 8.060e+0
0.197, 3.524e-5, 3.892e-5, 8.080e+0
0.196, 3.539e-5, 3.963e-5, 8.100e+0
0.195, 3.553e-5, 4.034e-5, 8.120e+0
0.194, 3.567e-5, 4.105e-5, 8.140e+0
0.193, 3.581e-5, 4.177e-5, 8.160e+0
0.192, 3.592e-5, 4.249e-5, 8.180e+0
0.191, 3.602e-5, 4.321e-5, 8.200e+0
0.190, 3.611e-5, 4.393e-5, 8.220e+0
0.189, 3.618e-5, 4.465e-5, 8.240e+0
0.188, 3.623e-5, 4.538e-5, 8.260e+0
0.187, 3.628e-5, 4.610e-5, 8.280e+0
0.186, 3.634e-5, 4.683e-5, 8.300e+0
0.185, 3.637e-5, 4.756e-5, 8.320e+0
0.184, 3.639e-5, 4.829e-5, 8.340e+0
0.183, 3.640e-5, 4.901e-5, 8.360e+0
0.182, 3.640e-5, 4.974e-5, 8.380e+0
0.181, 3.639e-5, 5.047e-5, 8.400e+0
0.180, 3.638e-5, 5.120e-5, 8.420e+0
0.179, 3.633e-5, 5.192e-5, 8.440e+0
0.178, 3.630e-5, 5.265e-5, 8.460e+0
0.177, 3.626e-5, 5.337e-5, 8.480e+0
0.176, 3.621e-5, 5.410e-5, 8.500e+0
0.175, 3.614e-5, 5.482e-5, 8.520e+0
0.174, 3.607e-5, 5.554e-5, 8.540e+0
0.173, 3.600e-5, 5.626e-5, 8.560e+0
0.172, 3.591e-5, 5.698e-5, 8.580e+0
0.171, 3.582e-5, 5.770e-5, 8.600e+0
0.170, 3.573e-5, 5.841e-5, 8.620e+0
0.169, 3.562e-5, 5.912e-5, 8.640e+0
0.168, 3.551e-5, 5.984e-5, 8.660e+0
0.167, 3.540e-5, 6.054e-5, 8.680e+0
0.166, 3.528e-5, 6.125e-5, 8.700e+0
0.165, 3.517e-5, 6.195e-5, 8.720e+0
0.164, 3.504e-5, 6.265e-5, 8.740e+0
0.163, 3.491e-5, 6.335e-5, 8.760e+0
0.162, 3.478e-5, 6.405e-5, 8.780e+0
0.161, 3.463e-5, 6.474e-5, 8.800e+0
0.160, 3.450e-5, 6.543e-5, 8.820e+0
0.159, 3.436e-5, 6.612e-5, 8.840e+0
0.158, 3.421e-5, 6.680e-5, 8.860e+0
0.157, 3.406e-5, 6.748e-5, 8.880e+0
0.156, 3.390e-5, 6.816e-5, 8.900e+0
0.155, 3.375e-5, 6.883e-5, 8.920e+0
0.154, 3.359e-5, 6.951e-5, 8.940e+0
0.153, 3.342e-5, 7.017e-5, 8.960e+0
0.152, 3.327e-5, 7.084e-5, 8.980e+0
0.151, 3.312e-5, 7.150e-5, 9.000e+0
0.150, 3.296e-5, 7.216e-5, 9.020e+0
0.149, 3.280e-5, 7.282e-5, 9.040e+0
0.148, 3.264e-5, 7.347e-5, 9.060e+0
0.147, 3.248e-5, 7.412e-5, 9.080e+0
0.146, 3.232e-5, 7.477e-5, 9.100e+0
0.145, 3.215e-5, 7.541e-5, 9.120e+0
0.144, 3.199e-5, 7.605e-5, 9.140e+0
0.143, 3.183e-5, 7.669e-5, 9.160e+0
0.142, 3.166e-5, 7.732e-5, 9.180e+0
0.141, 3.151e-5, 7.795e-5, 9.200e+0
0.140, 3.134e-5, 7.858e-5, 9.220e+0
0.139, 3.118e-5, 7.920e-5, 9.240e+0
0.138, 3.102e-5, 7.982e-5, 9.260e+0
0.137, 3.086e-5, 8.044e-5, 9.280e+0
0.136, 3.071e-5, 8.105e-5, 9.300e+0
0.135, 3.055e-5, 8.166e-5, 9.320e+0
0.134, 3.039e-5, 8.227e-5, 9.340e+0
0.133, 3.023e-5, 8.288e-5, 9.360e+0
0.132, 3.008e-5, 8.348e-5, 9.380e+0
0.131, 2.993e-5, 8.408e-5, 9.400e+0
0.130, 2.978e-5, 8.467e-5, 9.420e+0
0.129, 2.962e-5, 8.526e-5, 9.440e+0
0.128, 2.947e-5, 8.585e-5, 9.460e+0
0.127, 2.932e-5, 8.644e-5, 9.480e+0
0.126, 2.917e-5, 8.702e-5, 9.500e+0
0.125, 2.903e-5, 8.760e-5, 9.520e+0
0.124, 2.889e-5, 8.818e-5, 9.540e+0
0.123, 2.874e-5, 8.876e-5, 9.560e+0
0.122, 2.860e-5, 8.933e-5, 9.580e+0
0.121, 2.846e-5, 8.990e-5, 9.600e+0
0.120, 2.833e-5, 9.046e-5, 9.620e+0
0.119, 2.818e-5, 9.103e-5, 9.640e+0
0.118, 2.805e-5, 9.159e-5, 9.660e+0
0.117, 2.792e-5, 9.215e-5, 9.680e+0
0.116, 2.779e-5, 9.270e-5, 9.700e+0
0.115, 2.766e-5, 9.326e-5, 9.720e+0
0.114, 2.753e-5, 9.381e-5, 9.740e+0
0.113, 2.740e-5, 9.435e-5, 9.760e+0
0.112, 2.727e-5, 9.490e-5, 9.780e+0
0.111, 2.715e-5, 9.544e-5, 9.800e+0
0.110, 2.703e-5, 9.598e-5, 9.820e+0
0.109, 2.691e-5, 9.652e-5, 9.840e+0
0.108, 2.679e-5, 9.706e-5, 9.860e+0
0.107, 2.667e-5, 9.759e-5, 9.880e+0
0.106, 2.655e-5, 9.812e-5, 9.900e+0
0.105, 2.644e-5, 9.865e-5, 9.920e+0
0.104, 2.632e-5, 9.918e-5, 9.940e+0
0.103, 2.621e-5, 9.970e-5, 9.960e+0
0.102, 2.610e-5, 1.002e-4, 9.980e+0
0.101, 2.599e-5, 1.007e-4, 1.000e+1
0.100, 2.589e-5, 1.013e-4, 1.002e+1
0.099, 2.578e-5, 1.018e-4, 1.004e+1
0.098, 2.568e-5, 1.023e-4, 1.006e+1
0.097, 2.557e-5, 1.028e-4, 1.008e+1
0.096, 2.547e-5, 1.033e-4, 1.010e+1
0.095, 2.537e-5, 1.038e-4, 1.012e+1
0.094, 2.527e-5, 1.043e-4, 1.014e+1
0.093, 2.518e-5, 1.048e-4, 1.016e+1
0.092, 2.508e-5, 1.053e-4, 1.018e+1
0.091, 2.499e-5, 1.058e-4, 1.020e+1
0.090, 2.490e-5, 1.063e-4, 1.022e+1
0.089, 2.481e-5, 1.068e-4, 1.024e+1
0.088, 2.472e-5, 1.073e-4, 1.026e+1
0.087, 2.463e-5, 1.078e-4, 1.028e+1
0.086, 2.454e-5, 1.083e-4, 1.030e+1
0.085, 2.445e-5, 1.088e-4, 1.032e+1
0.084, 2.437e-5, 1.093e-4, 1.034e+1
0.083, 2.429e-5, 1.098e-4, 1.036e+1
0.082, 2.421e-5, 1.102e-4, 1.038e+1
0.081, 2.413e-5, 1.107e-4, 1.040e+1
0.080, 2.405e-5, 1.112e-4, 1.042e+1
0.079, 2.397e-5, 1.117e-4, 1.044e+1
0.078, 2.389e-5, 1.122e-4, 1.046e+1
0.077, 2.381e-5, 1.126e-4, 1.048e+1
0.076, 2.374e-5, 1.131e-4, 1.050e+1
0.075, 2.367e-5, 1.136e-4, 1.052e+1
0.074, 2.359e-5, 1.141e-4, 1.054e+1
0.073, 2.353e-5, 1.145e-4, 1.056e+1
0.072, 2.346e-5, 1.150e-4, 1.058e+1
0.071, 2.339e-5, 1.155e-4, 1.060e+1
0.070, 2.332e-5, 1.159e-4, 1.062e+1
0.069, 2.325e-5, 1.164e-4, 1.064e+1
0.068, 2.319e-5, 1.169e-4, 1.066e+1
0.067, 2.312e-5, 1.173e-4, 1.068e+1
0.066, 2.306e-5, 1.178e-4, 1.070e+1
0.065, 2.300e-5, 1.183e-4, 1.072e+1
0.064, 2.294e-5, 1.187e-4, 1.074e+1
0.063, 2.288e-5, 1.192e-4, 1.076e+1
0.062, 2.282e-5, 1.196e-4, 1.078e+1
0.061, 2.276e-5, 1.201e-4, 1.080e+1
0.060, 2.270e-5, 1.205e-4, 1.082e+1
0.059, 2.265e-5, 1.210e-4, 1.084e+1
0.058, 2.259e-5, 1.214e-4, 1.086e+1
0.057, 2.254e-5, 1.219e-4, 1.088e+1
0.056, 2.249e-5, 1.223e-4, 1.090e+1
0.055, 2.244e-5, 1.228e-4, 1.092e+1
0.054, 2.239e-5, 1.232e-4, 1.094e+1
0.053, 2.233e-5, 1.237e-4, 1.096e+1
0.052, 2.229e-5, 1.241e-4, 1.098e+1
0.051, 2.223e-5, 1.246e-4, 1.100e+1
0.050, 2.219e-5, 1.250e-4, 1.102e+1
0.049, 2.214e-5, 1.255e-4, 1.104e+1
0.048, 2.210e-5, 1.259e-4, 1.106e+1
0.047, 2.205e-5, 1.263e-4, 1.108e+1
0.046, 2.201e-5, 1.268e-4, 1.110e+1
0.045, 2.196e-5, 1.272e-4, 1.112e+1
0.044, 2.192e-5, 1.277e-4, 1.114e+1
0.043, 2.188e-5, 1.281e-4, 1.116e+1
0.042, 2.184e-5, 1.285e-4, 1.118e+1
0.041, 2.180e-5, 1.290e-4, 1.120e+1
0.040, 2.176e-5, 1.294e-4, 1.122e+1
0.039, 2.173e-5, 1.298e-4, 1.124e+1
0.038, 2.169e-5, 1.303e-4, 1.126e+1
0.037, 2.165e-5, 1.307e-4, 1.128e+1
0.036, 2.162e-5, 1.311e-4, 1.130e+1
0.035, 2.158e-5, 1.316e-4, 1.132e+1
0.034, 2.155e-5, 1.320e-4, 1.134e+1
0.033, 2.152e-5, 1.324e-4, 1.136e+1
0.032, 2.148e-5, 1.329e-4, 1.138e+1
0.031, 2.145e-5, 1.333e-4, 1.140e+1
0.030, 2.142e-5, 1.337e-4, 1.142e+1
0.029, 2.139e-5, 1.341e-4, 1.144e+1
0.028, 2.136e-5, 1.346e-4, 1.146e+1
0.027, 2.133e-5, 1.350e-4, 1.148e+1
0.026, 2.131e-5, 1.354e-4, 1.150e+1
0.025, 2.128e-5, 1.359e-4, 1.152e+1
0.024, 2.125e-5, 1.363e-4, 1.154e+1
0.023, 2.123e-5, 1.367e-4, 1.156e+1
0.022, 2.120e-5, 1.371e-4, 1.158e+1
0.021, 2.118e-5, 1.375e-4, 1.160e+1
0.020, 2.116e-5, 1.380e-4, 1.162e+1
0.019, 2.114e-5, 1.384e-4, 1.164e+1
0.018, 2.111e-5, 1.388e-4, 1.166e+1
0.017, 2.109e-5, 1.392e-4, 1.168e+1
0.016, 2.107e-5, 1.397e-4, 1.170e+1
0.015, 2.105e-5, 1.401e-4, 1.172e+1
0.014, 2.103e-5, 1.405e-4, 1.174e+1
0.013, 2.102e-5, 1.409e-4, 1.176e+1
0.012, 2.100e-5, 1.413e-4, 1.178e+1
0.011, 2.098e-5, 1.418e-4, 1.180e+1
0.010, 2.097e-5, 1.422e-4, 1.182e+1
0.009, 2.095e-5, 1.426e-4, 1.184e+1
0.008, 2.094e-5, 1.430e-4, 1.186e+1
0.007, 2.092e-5, 1.434e-4, 1.188e+1
0.006, 2.091e-5, 1.439e-4, 1.190e+1
0.005, 2.090e-5, 1.443e-4, 1.192e+1
0.004, 2.089e-5, 1.447e-4, 1.194e+1
0.003, 2.087e-5, 1.451e-4, 1.196e+1
0.002, 2.086e-5, 1.455e-4, 1.198e+1
0.001, 2.085e-5, 1.459e-4, 1.200e+1

Segment 2:
0.000, 2.076e-5, 1.464e-4, 1.202e+1
0.001, 2.043e-5, 1.468e-4, 1.204e+1
0.002, 2.024e-5, 1.472e-4, 1.206e+1
0.003, 2.009e-5, 1.476e-4, 1.208e+1
0.004, 1.997e-5, 1.480e-4, 1.210e+1
0.005, 1.985e-5, 1.484e-4, 1.212e+1
0.006, 1.973e-5, 1.488e-4, 1.214e+1
0.007, 1.962e-5, 1.492e-4, 1.216e+1
0.008, 1.951e-5, 1.495e-4, 1.218e+1
0.009, 1.941e-5, 1.499e-4, 1.220e+1
0.010, 1.931e-5, 1.503e-4, 1.222e+1
0.011, 1.921e-5, 1.507e-4, 1.224e+1
0.012, 1.912e-5, 1.511e-4, 1.226e+1
0.013, 1.903e-5, 1.515e-4, 1.228e+1
0.014, 1.893e-5, 1.518e-4, 1.230e+1
0.015, 1.884e-5, 1.522e-4, 1.232e+1
0.016, 1.876e-5, 1.526e-4, 1.234e+1
0.017, 1.867e-5, 1.530e-4, 1.236e+1
0.018, 1.859e-5, 1.533e-4, 1.238e+1
0.019, 1.850e-5, 1.537e-4, 1.240e+1
0.020, 1.842e-5, 1.541e-4, 1.242e+1
0.021, 1.834e-5, 1.544e-4, 1.244e+1
0.022, 1.827e-5, 1.548e-4, 1.246e+1
0.023, 1.819e-5, 1.552e-4, 1.248e+1
0.024, 1.811e-5, 1.555e-4, 1.250e+1
0.025, 1.804e-5, 1.559e-4, 1.252e+1
0.026, 1.796e-5, 1.563e-4, 1.254e+1
0.027, 1.789e-5, 1.566e-4, 1.256e+1
0.028, 1.782e-5, 1.570e-4, 1.258e+1
0.029, 1.775e-5, 1.573e-4, 1.260e+1
0.030, 1.768e-5, 1.577e-4, 1.262e+1
0.031, 1.761e-5, 1.580e-4, 1.264e+1
0.032, 1.754e-5, 1.584e-4, 1.266e+1
0.033, 1.747e-5, 1.587e-4, 1.268e+1
0.034, 1.741e-5, 1.591e-4, 1.270e+1
0.035, 1.734e-5, 1.594e-4, 1.272e+1
0.036, 1.727e-5, 1.598e-4, 1.274e+1
0.037, 1.721e-5, 1.601e-4, 1.276e+1
0.038, 1.715e-5, 1.605e-4, 1.278e+1
0.039, 1.708e-5, 1.608e-4, 1.280e+1
0.040, 1.702e-5, 1.611e-4, 1.282e+1
0.041, 1.696e-5, 1.615e-4, 1.284e+1
0.042, 1.690e-5, 1.618e-4, 1.286e+1
0.043, 1.684e-5, 1.622e-4, 1.288e+1
0.044, 1.678e-5, 1.625e-4, 1.290e+1
0.045, 1.672e-5, 1.628e-4, 1.292e+1
0.046, 1.666e-5, 1.632e-4, 1.294e+1
0.047, 1.660e-5, 1.635e-4, 1.296e+1
0.048, 1.654e-5, 1.638e-4, 1.298e+1
0.049, 1.648e-5, 1.642e-4, 1.300e+1
0.050, 1.643e-5, 1.645e-4, 1.302e+1
0.051, 1.637e-5, 1.648e-4, 1.304e+1
0.052, 1.631e-5, 1.651e-4, 1.306e+1
0.053, 1.626e-5, 1.655e-4, 1.308e+1
0.054, 1.620e-5, 1.658e-4, 1.310e+1
0.055, 1.614e-5, 1.661e-4, 1.312e+1
0.056, 1.609e-5, 1.664e-4, 1.314e+1
0.057, 1.603e-5, 1.668e-4, 1.316e+1
0.058, 1.598e-5, 1.671e-4, 1.318e+1
0.059, 1.592e-5, 1.674e-4, 1.320e+1
0.060, 1.587e-5, 1.677e-4, 1.322e+1
0.061, 1.582e-5, 1.680e-4, 1.324e+1
0.062, 1.576e-5, 1.683e-4, 1.326e+1
0.063, 1.571e-5, 1.687e-4, 1.328e+1
0.064, 1.565e-5, 1.690e-4, 1.330e+1
0.065, 1.560e-5, 1.693e-4, 1.332e+1
0.066, 1.555e-5, 1.696e-4, 1.334e+1
0.067, 1.549e-5, 1.699e-4, 1.336e+1
0.068, 1.544e-5, 1.702e-4, 1.338e+1
0.069, 1.539e-5, 1.705e-4, 1.340e+1
0.070, 1.533e-5, 1.708e-4, 1.342e+1
0.071, 1.528e-5, 1.711e-4, 1.344e+1
0.072, 1.523e-5, 1.714e-4, 1.346e+1
0.073, 1.517e-5, 1.717e-4, 1.348e+1
0.074, 1.512e-5, 1.720e-4, 1.350e+1
0.075, 1.506e-5, 1.723e-4, 1.352e+1
0.076, 1.501e-5, 1.726e-4, 1.354e+1
0.077, 1.496e-5, 1.729e-4, 1.356e+1
0.078, 1.491e-5, 1.732e-4, 1.358e+1
0.079, 1.485e-5, 1.735e-4, 1.360e+1
0.080, 1.480e-5, 1.738e-4, 1.362e+1
0.081, 1.474e-5, 1.741e-4, 1.364e+1
0.082, 1.469e-5, 1.744e-4, 1.366e+1
0.083, 1.463e-5, 1.747e-4, 1.368e+1
0.084, 1.458e-5, 1.750e-4, 1.370e+1
0.085, 1.452e-5, 1.753e-4, 1.372e+1
0.086, 1.447e-5, 1.756e-4, 1.374e+1
0.087, 1.441e-5, 1.759e-4, 1.376e+1
0.088, 1.435e-5, 1.762e-4, 1.378e+1
0.089, 1.430e-5, 1.764e-4, 1.380e+1
0.090, 1.424e-5, 1.767e-4, 1.382e+1
0.091, 1.418e-5, 1.770e-4, 1.384e+1
0.092, 1.412e-5, 1.773e-4, 1.386e+1
0.093, 1.406e-5, 1.776e-4, 1.388e+1
0.094, 1.400e-5, 1.779e-4, 1.390e+1
0.095, 1.394e-5, 1.781e-4, 1.392e+1
0.096, 1.388e-5, 1.784e-4, 1.394e+1
0.097, 1.382e-5, 1.787e-4, 1.396e+1
0.098, 1.376e-5, 1.790e-4, 1.398e+1
0.099, 1.369e-5, 1.792e-4, 1.400e+1
0.100, 1.363e-5, 1.795e-4, 1.402e+1
0.101, 1.356e-5, 1.798e-4, 1.404e+1
0.102, 1.349e-5, 1.801e-4, 1.406e+1
0.103, 1.343e-5, 1.803e-4, 1.408e+1
0.104, 1.336e-5, 1.806e-4, 1.410e+1
0.105, 1.329e-5, 1.809e-4, 1.412e+1
0.106, 1.322e-5, 1.811e-4, 1.414e+1
0.107, 1.314e-5, 1.814e-4, 1.416e+1
0.108, 1.307e-5, 1.816e-4, 1.418e+1
0.109, 1.300e-5, 1.819e-4, 1.420e+1
0.110, 1.292e-5, 1.822e-4, 1.422e+1
0.111, 1.284e-5, 1.824e-4, 1.424e+1
0.112, 1.276e-5, 1.827e-4, 1.426e+1
0.113, 1.268e-5, 1.829e-4, 1.428e+1
0.114, 1.260e-5, 1.832e-4, 1.430e+1
0.115, 1.252e-5, 1.834e-4, 1.432e+1
0.116, 1.243e-5, 1.837e-4, 1.434e+1
0.117, 1.234e-5, 1.839e-4, 1.436e+1
0.118, 1.226e-5, 1.842e-4, 1.438e+1
0.119, 1.217e-5, 1.844e-4, 1.440e+1
0.120, 1.207e-5, 1.847e-4, 1.442e+1
0.121, 1.198e-5, 1.849e-4, 1.444e+1
0.122, 1.188e-5, 1.851e-4, 1.446e+1
0.123, 1.178e-5, 1.854e-4, 1.448e+1
0.124, 1.168e-5, 1.856e-4, 1.450e+1
0.125, 1.157e-5, 1.858e-4, 1.452e+1
0.126, 1.146e-5, 1.861e-4, 1.454e+1
0.127, 1.136e-5, 1.863e-4, 1.456e+1
0.128, 1.125e-5, 1.865e-4, 1.458e+1
0.129, 1.113e-5, 1.867e-4, 1.460e+1
0.130, 1.102e-5, 1.870e-4, 1.462e+1
0.131, 1.089e-5, 1.872e-4, 1.464e+1
0.132, 1.077e-5, 1.874e-4, 1.466e+1
0.133, 1.064e-5, 1.876e-4, 1.468e+1
0.134, 1.051e-5, 1.878e-4, 1.470e+1
0.135, 1.038e-5, 1.880e-4, 1.472e+1
0.136, 1.023e-5, 1.882e-4, 1.474e+1
0.137, 1.010e-5, 1.884e-4, 1.476e+1
0.138, 9.956e-6, 1.886e-4, 1.478e+1
0.139, 9.804e-6, 1.888e-4, 1.480e+1
0.140, 9.654e-6, 1.890e-4, 1.482e+1
0.141, 9.494e-6, 1.892e-4, 1.484e+1
0.142, 9.332e-6, 1.894e-4, 1.486e+1
0.143, 9.167e-6, 1.896e-4, 1.488e+1
0.144, 9.003e-6, 1.898e-4, 1.490e+1
0.145, 8.826e-6, 1.899e-4, 1.492e+1
0.146, 8.645e-6, 1.901e-4, 1.494e+1
0.147, 8.460e-6, 1.903e-4, 1.496e+1
0.148, 8.271e-6, 1.904e-4, 1.498e+1
0.149, 8.084e-6, 1.906e-4, 1.500e+1
0.150, 7.885e-6, 1.908e-4, 1.502e+1
0.151, 7.678e-6, 1.909e-4, 1.504e+1
0.152, 7.473e-6, 1.911e-4, 1.506e+1
0.153, 7.258e-6, 1.912e-4, 1.508e+1
0.154, 7.051e-6, 1.913e-4, 1.510e+1
0.155, 6.828e-6, 1.915e-4, 1.512e+1
0.156, 6.598e-6, 1.916e-4, 1.514e+1
0.157, 6.356e-6, 1.917e-4, 1.516e+1
0.158, 6.115e-6, 1.919e-4, 1.518e+1
0.159, 5.865e-6, 1.920e-4, 1.520e+1
0.160, 5.606e-6, 1.921e-4, 1.522e+1
0.161, 5.344e-6, 1.922e-4, 1.524e+1
0.162, 5.078e-6, 1.923e-4, 1.526e+1
0.163, 4.802e-6, 1.924e-4, 1.528e+1
0.164, 4.524e-6, 1.925e-4, 1.530e+1
0.165, 4.230e-6, 1.926e-4, 1.532e+1
0.166, 3.936e-6, 1.927e-4, 1.534e+1
0.167, 3.635e-6, 1.927e-4, 1.536e+1
0.168, 3.329e-6, 1.928e-4, 1.538e+1
0.169, 3.011e-6, 1.929e-4, 1.540e+1
0.170, 2.692e-6, 1.929e-4, 1.542e+1
0.171, 2.359e-6, 1.930e-4, 1.544e+1
0.172, 2.027e-6, 1.930e-4, 1.546e+1
0.173, 1.681e-6, 1.930e-4, 1.548e+1
0.174, 1.329e-6, 1.931e-4, 1.550e+1
0.175, 9.724e-7, 1.931e-4, 1.552e+1
0.176, 6.111e-7, 1.931e-4, 1.554e+1
0.177, 2.423e-7, 1.931e-4, 1.556e+1
0.178, -1.231e-7, 1.931e-4, 1.558e+1
0.179, -4.959e-7, 1.931e-4, 1.560e+1
0.180, -8.905e-7, 1.931e-4, 1.562e+1
0.181, -1.286e-6, 1.930e-4, 1.564e+1
0.182, -1.689e-6, 1.930e-4, 1.566e+1
0.183, -2.087e-6, 1.930e-4, 1.568e+1
0.184, -2.508e-6, 1.929e-4, 1.570e+1
0.185, -2.927e-6, 1.929e-4, 1.572e+1
0.186, -3.349e-6, 1.928e-4, 1.574e+1
0.187, -3.787e-6, 1.927e-4, 1.576e+1
0.188, -4.214e-6, 1.926e-4, 1.578e+1
0.189, -4.658e-6, 1.925e-4, 1.580e+1
0.190, -5.089e-6, 1.924e-4, 1.582e+1
0.191, -5.537e-6, 1.923e-4, 1.584e+1
0.192, -6.006e-6, 1.922e-4, 1.586e+1
0.193, -6.461e-6, 1.921e-4, 1.588e+1
0.194, -6.908e-6, 1.919e-4, 1.590e+1
0.195, -7.373e-6, 1.918e-4, 1.592e+1
0.196, -7.842e-6, 1.916e-4, 1.594e+1
0.197, -8.292e-6, 1.915e-4, 1.596e+1
0.198, -8.751e-6, 1.913e-4, 1.598e+1
0.199, -9.226e-6, 1.911e-4, 1.600e+1
0.200, -9.703e-6, 1.909e-4, 1.602e+1
0.201, -1.018e-5, 1.907e-4, 1.604e+1
0.202, -1.064e-5, 1.905e-4, 1.606e+1
0.203, -1.111e-5, 1.903e-4, 1.608e+1
0.204, -1.157e-5, 1.900e-4, 1.610e+1
0.205, -1.209e-5, 1.898e-4, 1.612e+1
0.206, -1.259e-5, 1.895e-4, 1.614e+1
0.207, -1.302e-5, 1.893e-4, 1.616e+1
0.208, -1.346e-5, 1.890e-4, 1.618e+1
0.209, -1.390e-5, 1.887e-4, 1.620e+1
0.210, -1.435e-5, 1.884e-4, 1.622e+1
0.211, -1.481e-5, 1.882e-4, 1.624e+1
0.212, -1.525e-5, 1.878e-4, 1.626e+1
0.213, -1.568e-5, 1.875e-4, 1.628e+1
0.214, -1.610e-5, 1.872e-4, 1.630e+1
0.215, -1.653e-5, 1.869e-4, 1.632e+1
0.216, -1.693e-5, 1.865e-4, 1.634e+1
0.217, -1.734e-5, 1.862e-4, 1.636e+1
0.218, -1.774e-5, 1.858e-4, 1.638e+1
0.219, -1.814e-5, 1.855e-4, 1.640e+1
0.220, -1.851e-5, 1.851e-4, 1.642e+1
0.221, -1.889e-5, 1.847e-4, 1.644e+1
0.222, -1.925e-5, 1.843e-4, 1.646e+1
0.223, -1.960e-5, 1.840e-4, 1.648e+1
0.224, -1.994e-5, 1.836e-4, 1.650e+1
0.225, -2.027e-5, 1.831e-4, 1.652e+1
0.226, -2.059e-5, 1.827e-4, 1.654e+1
0.227, -2.091e-5, 1.823e-4, 1.656e+1
0.228, -2.120e-5, 1.819e-4, 1.658e+1
0.229, -2.147e-5, 1.815e-4, 1.660e+1
0.230, -2.175e-5, 1.810e-4, 1.662e+1
0.231, -2.199e-5, 1.806e-4, 1.664e+1
0.232, -2.224e-5, 1.801e-4, 1.666e+1
0.233, -2.247e-5, 1.797e-4, 1.668e+1
0.234, -2.270e-5, 1.792e-4, 1.670e+1
0.235, -2.290e-5, 1.788e-4, 1.672e+1
0.236, -2.311e-5, 1.783e-4, 1.674e+1
0.237, -2.330e-5, 1.779e-4, 1.676e+1
0.238, -2.346e-5, 1.774e-4, 1.678e+1
0.239, -2.361e-5, 1.769e-4, 1.680e+1
0.240, -2.377e-5, 1.764e-4, 1.682e+1
0.241, -2.389e-5, 1.760e-4, 1.684e+1
0.242, -2.400e-5, 1.755e-4, 1.686e+1
0.243, -2.412e-5, 1.750e-4, 1.688e+1
0.244, -2.420e-5, 1.745e-4, 1.690e+1
0.245, -2.428e-5, 1.740e-4, 1.692e+1
0.246, -2.436e-5, 1.735e-4, 1.694e+1
0.247, -2.441e-5, 1.731e-4, 1.696e+1
0.248, -2.446e-5, 1.726e-4, 1.698e+1
0.249, -2.450e-5, 1.721e-4, 1.700e+1
0.250, -2.453e-5, 1.716e-4, 1.702e+1
0.251, -2.455e-5, 1.711e-4, 1.704e+1
0.252, -2.454e-5, 1.706e-4, 1.706e+1
0.253, -2.453e-5, 1.701e-4, 1.708e+1
0.254, -2.452e-5, 1.696e-4, 1.710e+1
0.255, -2.450e-5, 1.691e-4, 1.712e+1
0.256, -2.445e-5, 1.686e-4, 1.714e+1
0.257, -2.438e-5, 1.682e-4, 1.716e+1
0.258, -2.434e-5, 1.677e-4, 1.718e+1
0.259, -2.429e-5, 1.672e-4, 1.720e+1
0.260, -2.422e-5, 1.667e-4, 1.722e+1
0.261, -2.415e-5, 1.662e-4, 1.724e+1
0.262, -2.406e-5, 1.657e-4, 1.726e+1
0.263, -2.396e-5, 1.653e-4, 1.728e+1
0.264, -2.388e-5, 1.648e-4, 1.730e+1
0.265, -2.378e-5, 1.643e-4, 1.732e+1
0.266, -2.367e-5, 1.638e-4, 1.734e+1
0.267, -2.357e-5, 1.634e-4, 1.736e+1
0.268, -2.345e-5, 1.629e-4, 1.738e+1
0.269, -2.333e-5, 1.624e-4, 1.740e+1
0.270, -2.320e-5, 1.620e-4, 1.742e+1
0.271, -2.306e-5, 1.615e-4, 1.744e+1
0.272, -2.294e-5, 1.610e-4, 1.746e+1
0.273, -2.281e-5, 1.606e-4, 1.748e+1
0.274, -2.266e-5, 1.601e-4, 1.750e+1
0.275, -2.252e-5, 1.597e-4, 1.752e+1
0.276, -2.238e-5, 1.592e-4, 1.754e+1
0.277, -2.222e-5, 1.588e-4, 1.756e+1
0.278, -2.207e-5, 1.583e-4, 1.758e+1
0.279, -2.191e-5, 1.579e-4, 1.760e+1
0.280, -2.176e-5, 1.575e-4, 1.762e+1
0.281, -2.161e-5, 1.570e-4, 1.764e+1
0.282, -2.145e-5, 1.566e-4, 1.766e+1
0.283, -2.129e-5, 1.562e-4, 1.768e+1
0.284, -2.113e-5, 1.558e-4, 1.770e+1
0.285, -2.097e-5, 1.553e-4, 1.772e+1
0.286, -2.081e-5, 1.549e-4, 1.774e+1
0.287, -2.065e-5, 1.545e-4, 1.776e+1
0.288, -2.049e-5, 1.541e-4, 1.778e+1
0.289, -2.033e-5, 1.537e-4, 1.780e+1
0.290, -2.016e-5, 1.533e-4, 1.782e+1
0.291, -2.000e-5, 1.529e-4, 1.784e+1
0.292, -1.984e-5, 1.525e-4, 1.786e+1
0.293, -1.967e-5, 1.521e-4, 1.788e+1
0.294, -1.952e-5, 1.517e-4, 1.790e+1
0.295, -1.936e-5, 1.513e-4, 1.792e+1
0.296, -1.920e-5, 1.509e-4, 1.794e+1
0.297, -1.904e-5, 1.506e-4, 1.796e+1
0.298, -1.888e-5, 1.502e-4, 1.798e+1
0.299, -1.873e-5, 1.498e-4, 1.800e+1
0.300, -1.857e-5, 1.494e-4, 1.802e+1
0.301, -1.841e-5, 1.491e-4, 1.804e+1
0.302, -1.826e-5, 1.487e-4, 1.806e+1
0.303, -1.811e-5, 1.483e-4, 1.808e+1
0.304, -1.796e-5, 1.480e-4, 1.810e+1
0.305, -1.781e-5, 1.476e-4, 1.812e+1
0.306, -1.765e-5, 1.473e-4, 1.814e+1
0.307, -1.751e-5, 1.469e-4, 1.816e+1
0.308, -1.736e-5, 1.466e-4, 1.818e+1
0.309, -1.722e-5, 1.462e-4, 1.820e+1
0.310, -1.707e-5, 1.459e-4, 1.822e+1
0.311, -1.693e-5, 1.456e-4, 1.824e+1
0.312, -1.679e-5, 1.452e-4, 1.826e+1
0.313, -1.665e-5, 1.449e-4, 1.828e+1
0.314, -1.651e-5, 1.446e-4, 1.830e+1
0.315, -1.637e-5, 1.442e-4, 1.832e+1
0.316, -1.624e-5, 1.439e-4, 1.834e+1
0.317, -1.610e-5, 1.436e-4, 1.836e+1
0.318, -1.597e-5, 1.433e-4, 1.838e+1
0.319, -1.584e-5, 1.429e-4, 1.840e+1
0.320, -1.571e-5, 1.426e-4, 1.842e+1
0.321, -1.559e-5, 1.423e-4, 1.844e+1
0.322, -1.546e-5, 1.420e-4, 1.846e+1
0.323, -1.534e-5, 1.417e-4, 1.848e+1
0.324, -1.521e-5, 1.414e-4, 1.850e+1
0.325, -1.509e-5, 1.411e-4, 1.852e+1
0.326, -1.497e-5, 1.408e-4, 1.854e+1
0.327, -1.485e-5, 1.405e-4, 1.856e+1
0.328, -1.473e-5, 1.402e-4, 1.858e+1
0.329, -1.462e-5, 1.399e-4, 1.860e+1
0.330, -1.451e-5, 1.396e-4, 1.862e+1
0.331, -1.440e-5, 1.393e-4, 1.864e+1
0.332, -1.428e-5, 1.390e-4, 1.866e+1
0.333, -1.417e-5, 1.388e-4, 1.868e+1
0.334, -1.406e-5, 1.385e-4, 1.870e+1
0.335, -1.396e-5, 1.382e-4, 1.872e+1
0.336, -1.385e-5, 1.379e-4, 1.874e+1
0.337, -1.375e-5, 1.376e-4, 1.876e+1
0.338, -1.364e-5, 1.374e-4, 1.878e+1
0.339, -1.355e-5, 1.371e-4, 1.880e+1
0.340, -1.345e-5, 1.368e-4, 1.882e+1
0.341, -1.334e-5, 1.366e-4, 1.884e+1
0.342, -1.325e-5, 1.363e-4, 1.886e+1
0.343, -1.315e-5, 1.360e-4, 1.888e+1
0.344, -1.306e-5, 1.358e-4, 1.890e+1
0.345, -1.296e-5, 1.355e-4, 1.892e+1
0.346, -1.287e-5, 1.353e-4, 1.894e+1
0.347, -1.278e-5, 1.350e-4, 1.896e+1
0.348, -1.269e-5, 1.348e-4, 1.898e+1
0.349, -1.260e-5, 1.345e-4, 1.900e+1
0.350, -1.251e-5, 1.343e-4, 1.902e+1
0.351, -1.243e-5, 1.340e-4, 1.904e+1
0.352, -1.234e-5, 1.338e-4, 1.906e+1
0.353, -1.226e-5, 1.335e-4, 1.908e+1
0.354, -1.217e-5, 1.333e-4, 1.910e+1
0.355, -1.209e-5, 1.330e-4, 1.912e+1
0.356, -1.201e-5, 1.328e-4, 1.914e+1
0.357, -1.193e-5, 1.325e-4, 1.916e+1
0.358, -1.185e-5, 1.323e-4, 1.918e+1
0.359, -1.177e-5, 1.321e-4, 1.920e+1
0.360, -1.169e-5, 1.318e-4, 1.922e+1
0.361, -1.162e-5, 1.316e-4, 1.924e+1
0.362, -1.154e-5, 1.314e-4, 1.926e+1
0.363, -1.147e-5, 1.311e-4, 1.928e+1
0.364, -1.140e-5, 1.309e-4, 1.930e+1
0.365, -1.132e-5, 1.307e-4, 1.932e+1
0.366, -1.125e-5, 1.305e-4, 1.934e+1
0.367, -1.118e-5, 1.302e-4, 1.936e+1
0.368, -1.111e-5, 1.300e-4, 1.938e+1
0.369, -1.104e-5, 1.298e-4, 1.940e+1
0.370, -1.097e-5, 1.296e-4, 1.942e+1
0.371, -1.091e-5, 1.294e-4, 1.944e+1
0.372, -1.084e-5, 1.291e-4, 1.946e+1
0.373, -1.078e-5, 1.289e-4, 1.948e+1
0.374, -1.071e-5, 1.287e-4, 1.950e+1
0.375, -1.065e-5, 1.285e-4, 1.952e+1
0.376, -1.059e-5, 1.283e-4, 1.954e+1
0.377, -1.052e-5, 1.281e-4, 1.956e+1
0.378, -1.046e-5, 1.279e-4, 1.958e+1
0.379, -1.040e-5, 1.277e-4, 1.960e+1
0.380, -1.034e-5, 1.275e-4, 1.962e+1
0.381, -1.028e-5, 1.273e-4, 1.964e+1
0.382, -1.022e-5, 1.270e-4, 1.966e+1
0.383, -1.017e-5, 1.268e-4, 1.968e+1
0.384, -1.011e-5, 1.266e-4, 1.970e+1
0.385, -1.005e-5, 1.264e-4, 1.972e+1
0.386, -9.994e-6, 1.262e-4, 1.974e+1
0.387, -9.940e-6, 1.260e-4, 1.976e+1
0.388, -9.885e-6, 1.258e-4, 1.978e+1
0.389, -9.831e-6, 1.256e-4, 1.980e+1
0.390, -9.779e-6, 1.255e-4, 1.982e+1
0.391, -9.725e-6, 1.253e-4, 1.984e+1
0.392, -9.671e-6, 1.251e-4, 1.986e+1
0.393, -9.621e-6, 1.249e-4, 1.988e+1
0.394, -9.570e-6, 1.247e-4, 1.990e+1
0.395, -9.519e-6, 1.245e-4, 1.992e+1
0.396, -9.469e-6, 1.243e-4, 1.994e+1
0.397, -9.420e-6, 1.241e-4, 1.996e+1
0.398, -9.372e-6, 1.239e-4, 1.998e+1
0.399, -9.322e-6, 1.237e-4, 2.000e+1
0.400, -9.276e-6, 1.236e-4, 2.002e+1
0.401, -9.229e-6, 1.234e-4, 2.004e+1
0.402, -9.180e-6, 1.232e-4, 2.006e+1
0.403, -9.136e-6, 1.230e-4, 2.008e+1
0.404, -9.090e-6, 1.228e-4, 2.010e+1
0.405, -9.045e-6, 1.226e-4, 2.012e+1
0.406, -9.000e-6, 1.225e-4, 2.014e+1
0.407, -8.955e-6, 1.223e-4, 2.016e+1
0.408, -8.911e-6, 1.221e-4, 2.018e+1
0.409, -8.867e-6, 1.219e-4, 2.020e+1
0.410, -8.813e-6, 1.218e-4, 2.022e+1
0.411, -8.779e-6, 1.216e-4, 2.024e+1
0.412, -8.740e-6, 1.214e-4, 2.026e+1
0.413, -8.698e-6, 1.212e-4, 2.028e+1
0.414, -8.657e-6, 1.211e-4, 2.030e+1
0.415, -8.616e-6, 1.209e-4, 2.032e+1
0.416, -8.576e-6, 1.207e-4, 2.034e+1
0.417, -8.538e-6, 1.205e-4, 2.036e+1
0.418, -8.498e-6, 1.204e-4, 2.038e+1
0.419, -8.458e-6, 1.202e-4, 2.040e+1
0.420, -8.420e-6, 1.200e-4, 2.042e+1
0.421, -8.382e-6, 1.199e-4, 2.044e+1
0.422, -8.345e-6, 1.197e-4, 2.046e+1
0.423, -8.307e-6, 1.195e-4, 2.048e+1
0.424, -8.269e-6, 1.194e-4, 2.050e+1
0.425, -8.234e-6, 1.192e-4, 2.052e+1
0.426, -8.197e-6, 1.190e-4, 2.054e+1
0.427, -8.163e-6, 1.189e-4, 2.056e+1
0.428, -8.126e-6, 1.187e-4, 2.058e+1
0.429, -8.091e-6, 1.185e-4, 2.060e+1
0.430, -8.056e-6, 1.184e-4, 2.062e+1
0.431, -8.022e-6, 1.182e-4, 2.064e+1
0.432, -7.988e-6, 1.181e-4, 2.066e+1
0.433, -7.954e-6, 1.179e-4, 2.068e+1
0.434, -7.920e-6, 1.177e-4, 2.070e+1
0.435, -7.886e-6, 1.176e-4, 2.072e+1
0.436, -7.853e-6, 1.174e-4, 2.074e+1
0.437, -7.822e-6, 1.173e-4, 2.076e+1
0.438, -7.791e-6, 1.171e-4, 2.078e+1
0.439, -7.759e-6, 1.170e-4, 2.080e+1
0.440, -7.729e-6, 1.168e-4, 2.082e+1
0.441, -7.697e-6, 1.167e-4, 2.084e+1
0.442, -7.665e-6, 1.165e-4, 2.086e+1
0.443, -7.634e-6, 1.164e-4, 2.088e+1
0.444, -7.603e-6, 1.162e-4, 2.090e+1
0.445, -7.573e-6, 1.160e-4, 2.092e+1
0.446, -7.543e-6, 1.159e-4, 2.094e+1
0.447, -7.512e-6, 1.157e-4, 2.096e+1
0.448, -7.483e-6, 1.156e-4, 2.098e+1
0.449, -7.455e-6, 1.154e-4, 2.100e+1
0.450, -7.425e-6, 1.153e-4, 2.102e+1
0.451, -7.397e-6, 1.152e-4, 2.104e+1
0.452, -7.369e-6, 1.150e-4, 2.106e+1
0.453, -7.342e-6, 1.149e-4, 2.108e+1
0.454, -7.316e-6, 1.147e-4, 2.110e+1
0.455, -7.287e-6, 1.146e-4, 2.112e+1
0.456, -7.260e-6, 1.144e-4, 2.114e+1
0.457, -7.235e-6, 1.143e-4, 2.116e+1
0.458, -7.208e-6, 1.141e-4, 2.118e+1
0.459, -7.182e-6, 1.140e-4, 2.120e+1
0.460, -7.156e-6, 1.138e-4, 2.122e+1
0.461, -7.127e-6, 1.137e-4, 2.124e+1
0.462, -7.105e-6, 1.136e-4, 2.126e+1
0.463, -7.080e-6, 1.134e-4, 2.128e+1
0.464, -7.055e-6, 1.133e-4, 2.130e+1
0.465, -7.032e-6, 1.131e-4, 2.132e+1
0.466, -7.006e-6, 1.130e-4, 2.134e+1
0.467, -6.983e-6, 1.129e-4, 2.136e+1
0.468, -6.959e-6, 1.127e-4, 2.138e+1
0.469, -6.935e-6, 1.126e-4, 2.140e+1
0.470, -6.913e-6, 1.124e-4, 2.142e+1
0.471, -6.890e-6, 1.123e-4, 2.144e+1
0.472, -6.867e-6, 1.122e-4, 2.146e+1
0.473, -6.845e-6, 1.120e-4, 2.148e+1
0.474, -6.823e-6, 1.119e-4, 2.150e+1
0.475, -6.800e-6, 1.118e-4, 2.152e+1
0.476, -6.779e-6, 1.116e-4, 2.154e+1
0.477, -6.756e-6, 1.115e-4, 2.156e+1
0.478, -6.736e-6, 1.114e-4, 2.158e+1
0.479, -6.714e-6, 1.112e-4, 2.160e+1
0.480, -6.694e-6, 1.111e-4, 2.162e+1
0.481, -6.673e-6, 1.110e-4, 2.164e+1
0.482, -6.651e-6, 1.108e-4, 2.166e+1
0.483, -6.633e-6, 1.107e-4, 2.168e+1
0.484, -6.612e-6, 1.106e-4, 2.170e+1
0.485, -6.591e-6, 1.104e-4, 2.172e+1
0.486, -6.573e-6, 1.103e-4, 2.174e+1
0.487, -6.553e-6, 1.102e-4, 2.176e+1
0.488, -6.533e-6, 1.100e-4, 2.178e+1
0.489, -6.516e-6, 1.099e-4, 2.180e+1
0.490, -6.497e-6, 1.098e-4, 2.182e+1
0.491, -6.478e-6, 1.096e-4, 2.184e+1
0.492, -6.459e-6, 1.095e-4, 2.186e+1
0.493, -6.441e-6, 1.094e-4, 2.188e+1
0.494, -6.424e-6, 1.093e-4, 2.190e+1
0.495, -6.406e-6, 1.091e-4, 2.192e+1
0.496, -6.389e-6, 1.090e-4, 2.194e+1
0.497, -6.373e-6, 1.089e-4, 2.196e+1
0.498, -6.355e-6, 1.087e-4, 2.198e+1
0.499, -6.338e-6, 1.086e-4, 2.200e+1
0.500, -6.320e-6, 1.085e-4, 2.202e+1
0.501, -6.303e-6, 1.084e-4, 2.204e+1
0.502, -6.288e-6, 1.082e-4, 2.206e+1
0.503, -6.271e-6, 1.081e-4, 2.208e+1
0.504, -6.256e-6, 1.080e-4, 2.210e+1
0.505, -6.241e-6, 1.079e-4, 2.212e+1
0.506, -6.225e-6, 1.077e-4, 2.214e+1
0.507, -6.211e-6, 1.076e-4, 2.216e+1
0.508, -6.195e-6, 1.075e-4, 2.218e+1
0.509, -6.180e-6, 1.074e-4, 2.220e+1
0.510, -6.166e-6, 1.072e-4, 2.222e+1
0.511, -6.150e-6, 1.071e-4, 2.224e+1
0.512, -6.136e-6, 1.070e-4, 2.226e+1
0.513, -6.122e-6, 1.069e-4, 2.228e+1
0.514, -6.108e-6, 1.068e-4, 2.230e+1
0.515, -6.094e-6, 1.066e-4, 2.232e+1
0.516, -6.081e-6, 1.065e-4, 2.234e+1
0.517, -6.067e-6, 1.064e-4, 2.236e+1
0.518, -6.055e-6, 1.063e-4, 2.238e+1
0.519, -6.041e-6, 1.061e-4, 2.240e+1
0.520, -6.029e-6, 1.060e-4, 2.242e+1
0.521, -6.016e-6, 1.059e-4, 2.244e+1
0.522, -6.003e-6, 1.058e-4, 2.246e+1
0.523, -5.991e-6, 1.057e-4, 2.248e+1
0.524, -5.979e-6, 1.055e-4, 2.250e+1
0.525, -5.967e-6, 1.054e-4, 2.252e+1
0.526, -5.955e-6, 1.053e-4, 2.254e+1
0.527, -5.943e-6, 1.052e-4, 2.256e+1
0.528, -5.930e-6, 1.051e-4, 2.258e+1
0.529, -5.920e-6, 1.049e-4, 2.260e+1
0.530, -5.909e-6, 1.048e-4, 2.262e+1
0.531, -5.898e-6, 1.047e-4, 2.264e+1
0.532, -5.888e-6, 1.046e-4, 2.266e+1
0.533, -5.876e-6, 1.045e-4, 2.268e+1
0.534, -5.866e-6, 1.044e-4, 2.270e+1
0.535, -5.855e-6, 1.042e-4, 2.272e+1
0.536, -5.845e-6, 1.041e-4, 2.274e+1
0.537, -5.836e-6, 1.040e-4, 2.276e+1
0.538, -5.825e-6, 1.039e-4, 2.278e+1
0.539, -5.815e-6, 1.038e-4, 2.280e+1
0.540, -5.807e-6, 1.037e-4, 2.282e+1
0.541, -5.797e-6, 1.035e-4, 2.284e+1
0.542, -5.789e-6, 1.034e-4, 2.286e+1
0.543, -5.779e-6, 1.033e-4, 2.288e+1
0.544, -5.771e-6, 1.032e-4, 2.290e+1
0.545, -5.762e-6, 1.031e-4, 2.292e+1
0.546, -5.754e-6, 1.030e-4, 2.294e+1
0.547, -5.744e-6, 1.029e-4, 2.296e+1
0.548, -5.735e-6, 1.027e-4, 2.298e+1
0.549, -5.727e-6, 1.026e-4, 2.300e+1
0.550, -5.721e-6, 1.025e-4, 2.302e+1
0.551, -5.713e-6, 1.024e-4, 2.304e+1
0.552, -5.706e-6, 1.023e-4, 2.306e+1
0.553, -5.698e-6, 1.022e-4, 2.308e+1
0.554, -5.689e-6, 1.021e-4, 2.310e+1
0.555, -5.683e-6, 1.019e-4, 2.312e+1
0.556, -5.676e-6, 1.018e-4, 2.314e+1
0.557, -5.669e-6, 1.017e-4, 2.316e+1
0.558, -5.663e-6, 1.016e-4, 2.318e+1
0.559, -5.657e-6, 1.015e-4, 2.320e+1
0.560, -5.650e-6, 1.014e-4, 2.322e+1
0.561, -5.643e-6, 1.013e-4, 2.324e+1
0.562, -5.637e-6, 1.011e-4, 2.326e+1
0.563, -5.630e-6, 1.010e-4, 2.328e+1
0.564, -5.624e-6, 1.009e-4, 2.330e+1
0.565, -5.620e-6, 1.008e-4, 2.332e+1
0.566, -5.614e-6, 1.007e-4, 2.334e+1
0.567, -5.608e-6, 1.006e-4, 2.336e+1
0.568, -5.604e-6, 1.005e-4, 2.338e+1
0.569, -5.598e-6, 1.004e-4, 2.340e+1
0.570, -5.593e-6, 1.002e-4, 2.342e+1
0.571, -5.589e-6, 1.001e-4, 2.344e+1
0.572, -5.584e-6, 1.000e-4, 2.346e+1
0.573, -5.580e-6, 9.991e-5, 2.348e+1
0.574, -5.575e-6, 9.980e-5, 2.350e+1
0.575, -5.571e-6, 9.969e-5, 2.352e+1
0.576, -5.567e-6, 9.958e-5, 2.354e+1
0.577, -5.563e-6, 9.947e-5, 2.356e+1
0.578, -5.558e-6, 9.936e-5, 2.358e+1
0.579, -5.556e-6, 9.925e-5, 2.360e+1
0.580, -5.552e-6, 9.914e-5, 2.362e+1
0.581, -5.548e-6, 9.902e-5, 2.364e+1
0.582, -5.545e-6, 9.891e-5, 2.366e+1
0.583, -5.543e-6, 9.880e-5, 2.368e+1
0.584, -5.540e-6, 9.869e-5, 2.370e+1
0.585, -5.537e-6, 9.858e-5, 2.372e+1
0.586, -5.533e-6, 9.847e-5, 2.374e+1
0.587, -5.532e-6, 9.836e-5, 2.376e+1
0.588, -5.530e-6, 9.825e-5, 2.378e+1
0.589, -5.527e-6, 9.814e-5, 2.380e+1
0.590, -5.525e-6, 9.803e-5, 2.382e+1
0.591, -5.523e-6, 9.792e-5, 2.384e+1
0.592, -5.521e-6, 9.781e-5, 2.386e+1
0.593, -5.521e-6, 9.770e-5, 2.388e+1
0.594, -5.519e-6, 9.759e-5, 2.390e+1
0.595, -5.517e-6, 9.748e-5, 2.392e+1
0.596, -5.517e-6, 9.737e-5, 2.394e+1
0.597, -5.514e-6, 9.726e-5, 2.396e+1
0.598, -5.515e-6, 9.715e-5, 2.398e+1
0.599, -5.515e-6, 9.704e-5, 2.400e+1
