May 18, 2026   16:33:27
A.C. Impedance
File: 1
Data Source:  Experiment
Instrument Model:  CHI660D
Header: 
Note: 

Init E (V) = 0
High Frequency (Hz) = 1e+5
Low Frequency (Hz) = 0.1
Imp SF
Amplitude (V) = 0.001
Quiet Time (sec) = 2
Cycles (.1-1Hz) = 1

Freq/Hz, Z'/ohm, Z"/ohm, Z/ohm, Phase/deg

8.252e+4, 3.707e+1, -1.731e+0, 3.711e+1, -2.7
6.812e+4, 3.747e+1, -2.968e+0, 3.759e+1, -4.5
5.615e+4, 3.776e+1, -3.868e+0, 3.796e+1, -5.8
4.639e+4, 3.795e+1, -5.047e+0, 3.829e+1, -7.6
3.833e+4, 3.806e+1, -6.228e+0, 3.856e+1, -9.3
3.174e+4, 3.815e+1, -7.689e+0, 3.891e+1, -11.4
2.612e+4, 3.823e+1, -9.415e+0, 3.937e+1, -13.8
2.148e+4, 3.833e+1, -1.152e+1, 4.002e+1, -16.7
1.782e+4, 3.845e+1, -1.402e+1, 4.093e+1, -20.0
1.465e+4, 3.865e+1, -1.692e+1, 4.219e+1, -23.6
1.221e+4, 3.892e+1, -2.042e+1, 4.395e+1, -27.7
1.001e+4, 3.923e+1, -2.467e+1, 4.634e+1, -32.2
8.301e+3, 3.957e+1, -2.971e+1, 4.948e+1, -36.9
6.836e+3, 3.999e+1, -3.585e+1, 5.371e+1, -41.9
5.615e+3, 4.056e+1, -4.325e+1, 5.929e+1, -46.8
4.639e+3, 4.126e+1, -5.177e+1, 6.620e+1, -51.4
3.906e+3, 4.214e+1, -6.208e+1, 7.503e+1, -55.8
3.174e+3, 4.320e+1, -7.427e+1, 8.592e+1, -59.8
2.686e+3, 4.455e+1, -8.879e+1, 9.934e+1, -63.4
2.197e+3, 4.657e+1, -1.086e+2, 1.182e+2, -66.8
1.709e+3, 4.918e+1, -1.321e+2, 1.410e+2, -69.6
1.465e+3, 5.232e+1, -1.579e+2, 1.664e+2, -71.7
1.221e+3, 5.661e+1, -1.901e+2, 1.983e+2, -73.4
9.766e+2, 6.231e+1, -2.279e+2, 2.363e+2, -74.7
8.252e+2, 6.945e+1, -2.715e+2, 2.803e+2, -75.7
6.836e+2, 7.900e+1, -3.245e+2, 3.340e+2, -76.3
5.615e+2, 9.179e+1, -3.882e+2, 3.989e+2, -76.7
4.639e+2, 1.092e+2, -4.649e+2, 4.776e+2, -76.8
3.809e+2, 1.325e+2, -5.559e+2, 5.715e+2, -76.6
3.174e+2, 1.636e+2, -6.638e+2, 6.837e+2, -76.2
2.588e+2, 2.071e+2, -7.898e+2, 8.165e+2, -75.3
2.148e+2, 2.675e+2, -9.382e+2, 9.756e+2, -74.1
1.758e+2, 3.464e+2, -1.109e+3, 1.162e+3, -72.7
1.465e+2, 4.459e+2, -1.296e+3, 1.371e+3, -71.0
1.221e+2, 5.832e+2, -1.513e+3, 1.621e+3, -68.9
9.766e+1, 7.633e+2, -1.748e+3, 1.907e+3, -66.4
8.254e+1, 9.896e+2, -1.987e+3, 2.220e+3, -63.5
6.813e+1, 1.276e+3, -2.230e+3, 2.569e+3, -60.2
5.623e+1, 1.623e+3, -2.459e+3, 2.946e+3, -56.6
4.642e+1, 2.032e+3, -2.658e+3, 3.345e+3, -52.6
3.831e+1, 2.494e+3, -2.809e+3, 3.756e+3, -48.4
3.162e+1, 2.991e+3, -2.897e+3, 4.164e+3, -44.1
2.610e+1, 3.500e+3, -2.912e+3, 4.553e+3, -39.8
2.154e+1, 3.995e+3, -2.854e+3, 4.910e+3, -35.5
1.778e+1, 4.457e+3, -2.733e+3, 5.228e+3, -31.5
1.468e+1, 4.872e+3, -2.567e+3, 5.506e+3, -27.8
1.212e+1, 5.233e+3, -2.372e+3, 5.746e+3, -24.4
1.000e+1, 5.598e+3, -2.212e+3, 6.019e+3, -21.6
8.254e+0, 5.895e+3, -2.044e+3, 6.239e+3, -19.1
6.813e+0, 6.080e+3, -1.839e+3, 6.352e+3, -16.8
5.623e+0, 6.236e+3, -1.650e+3, 6.451e+3, -14.8
4.642e+0, 6.385e+3, -1.482e+3, 6.555e+3, -13.1
3.831e+0, 6.544e+3, -1.330e+3, 6.678e+3, -11.5
3.162e+0, 6.669e+3, -1.213e+3, 6.778e+3, -10.3
2.610e+0, 6.745e+3, -1.142e+3, 6.841e+3, -9.6
2.154e+0, 6.831e+3, -1.085e+3, 6.917e+3, -9.0
1.778e+0, 6.934e+3, -1.044e+3, 7.012e+3, -8.6
1.468e+0, 7.025e+3, -1.017e+3, 7.098e+3, -8.2
1.212e+0, 7.103e+3, -1.007e+3, 7.174e+3, -8.1
1.000e+0, 8.042e+3, -7.732e+2, 8.079e+3, -5.5
8.254e-1, 8.688e+3, -6.368e+2, 8.711e+3, -4.2
6.813e-1, 8.276e+3, -8.017e+2, 8.314e+3, -5.5
5.623e-1, 7.843e+3, -9.736e+2, 7.903e+3, -7.1
4.642e-1, 7.479e+3, -1.127e+3, 7.564e+3, -8.6
3.831e-1, 7.389e+3, -1.204e+3, 7.487e+3, -9.3
3.162e-1, 7.399e+3, -1.256e+3, 7.504e+3, -9.6
2.610e-1, 7.476e+3, -1.300e+3, 7.589e+3, -9.9
2.154e-1, 7.554e+3, -1.369e+3, 7.677e+3, -10.3
1.778e-1, 7.629e+3, -1.449e+3, 7.766e+3, -10.8
1.468e-1, 7.669e+3, -1.525e+3, 7.819e+3, -11.2
1.212e-1, 7.649e+3, -1.572e+3, 7.809e+3, -11.6
1.000e-1, 7.561e+3, -1.586e+3, 7.726e+3, -11.8
