May 18, 2026   16:50:36
A.C. Impedance
File: 10
Data Source:  Experiment
Instrument Model:  CHI660D
Header: 
Note: 

Init E (V) = 0
High Frequency (Hz) = 1e+5
Low Frequency (Hz) = 0.1
Imp SF
Amplitude (V) = 0.01
Quiet Time (sec) = 2
Cycles (.1-1Hz) = 1

Freq/Hz, Z'/ohm, Z"/ohm, Z/ohm, Phase/deg

8.252e+4, 3.714e+1, 1.897e-1, 3.714e+1, 0.3
6.812e+4, 3.733e+1, -1.113e+0, 3.735e+1, -1.7
5.615e+4, 3.751e+1, -2.441e+0, 3.758e+1, -3.7
4.639e+4, 3.769e+1, -3.804e+0, 3.788e+1, -5.8
3.833e+4, 3.786e+1, -5.245e+0, 3.822e+1, -7.9
3.174e+4, 3.803e+1, -6.819e+0, 3.863e+1, -10.2
2.612e+4, 3.819e+1, -8.613e+0, 3.915e+1, -12.7
2.148e+4, 3.837e+1, -1.068e+1, 3.982e+1, -15.6
1.782e+4, 3.856e+1, -1.310e+1, 4.072e+1, -18.8
1.465e+4, 3.877e+1, -1.592e+1, 4.191e+1, -22.3
1.221e+4, 3.901e+1, -1.928e+1, 4.351e+1, -26.3
1.001e+4, 3.926e+1, -2.332e+1, 4.567e+1, -30.7
8.301e+3, 3.956e+1, -2.815e+1, 4.855e+1, -35.4
6.836e+3, 3.995e+1, -3.402e+1, 5.247e+1, -40.4
5.615e+3, 4.047e+1, -4.105e+1, 5.765e+1, -45.4
4.639e+3, 4.112e+1, -4.916e+1, 6.409e+1, -50.1
3.906e+3, 4.196e+1, -5.894e+1, 7.235e+1, -54.6
3.174e+3, 4.300e+1, -7.050e+1, 8.258e+1, -58.6
2.686e+3, 4.431e+1, -8.426e+1, 9.520e+1, -62.3
2.197e+3, 4.623e+1, -1.030e+2, 1.129e+2, -65.8
1.709e+3, 4.867e+1, -1.253e+2, 1.344e+2, -68.8
1.465e+3, 5.153e+1, -1.497e+2, 1.584e+2, -71.0
1.221e+3, 5.544e+1, -1.802e+2, 1.885e+2, -72.9
9.766e+2, 6.054e+1, -2.162e+2, 2.245e+2, -74.4
8.252e+2, 6.704e+1, -2.578e+2, 2.664e+2, -75.4
6.836e+2, 7.567e+1, -3.081e+2, 3.173e+2, -76.2
5.615e+2, 8.713e+1, -3.689e+2, 3.790e+2, -76.7
4.639e+2, 1.026e+2, -4.423e+2, 4.540e+2, -76.9
3.809e+2, 1.230e+2, -5.285e+2, 5.426e+2, -76.9
3.174e+2, 1.507e+2, -6.312e+2, 6.489e+2, -76.6
2.588e+2, 1.883e+2, -7.526e+2, 7.758e+2, -76.0
2.148e+2, 2.394e+2, -8.957e+2, 9.271e+2, -75.0
1.758e+2, 3.078e+2, -1.061e+3, 1.104e+3, -73.8
1.465e+2, 3.965e+2, -1.243e+3, 1.305e+3, -72.3
1.221e+2, 5.218e+2, -1.460e+3, 1.550e+3, -70.3
9.766e+1, 6.841e+2, -1.698e+3, 1.831e+3, -68.1
8.254e+1, 8.873e+2, -1.947e+3, 2.140e+3, -65.5
6.813e+1, 1.149e+3, -2.208e+3, 2.489e+3, -62.5
5.623e+1, 1.475e+3, -2.465e+3, 2.873e+3, -59.1
4.642e+1, 1.870e+3, -2.704e+3, 3.288e+3, -55.3
3.831e+1, 2.330e+3, -2.902e+3, 3.722e+3, -51.2
3.162e+1, 2.839e+3, -3.040e+3, 4.160e+3, -47.0
2.610e+1, 3.377e+3, -3.103e+3, 4.586e+3, -42.6
2.154e+1, 3.918e+3, -3.086e+3, 4.987e+3, -38.2
1.778e+1, 4.436e+3, -2.993e+3, 5.351e+3, -34.0
1.468e+1, 4.911e+3, -2.838e+3, 5.673e+3, -30.0
1.212e+1, 5.330e+3, -2.641e+3, 5.948e+3, -26.4
1.000e+1, 5.678e+3, -2.416e+3, 6.170e+3, -23.0
8.254e+0, 5.966e+3, -2.187e+3, 6.354e+3, -20.1
6.813e+0, 6.210e+3, -1.975e+3, 6.517e+3, -17.6
5.623e+0, 6.415e+3, -1.783e+3, 6.659e+3, -15.5
4.642e+0, 6.591e+3, -1.613e+3, 6.785e+3, -13.8
3.831e+0, 6.746e+3, -1.447e+3, 6.899e+3, -12.1
3.162e+0, 6.876e+3, -1.310e+3, 7.000e+3, -10.8
2.610e+0, 6.984e+3, -1.217e+3, 7.089e+3, -9.9
2.154e+0, 7.095e+3, -1.146e+3, 7.187e+3, -9.2
1.778e+0, 7.209e+3, -1.093e+3, 7.291e+3, -8.6
1.468e+0, 7.314e+3, -1.055e+3, 7.389e+3, -8.2
1.212e+0, 7.410e+3, -1.034e+3, 7.482e+3, -7.9
1.000e+0, 7.522e+3, -1.026e+3, 7.592e+3, -7.8
8.254e-1, 7.625e+3, -1.040e+3, 7.695e+3, -7.8
6.813e-1, 7.703e+3, -1.078e+3, 7.778e+3, -8.0
5.623e-1, 7.785e+3, -1.133e+3, 7.867e+3, -8.3
4.642e-1, 7.879e+3, -1.201e+3, 7.970e+3, -8.7
3.831e-1, 7.988e+3, -1.279e+3, 8.090e+3, -9.1
3.162e-1, 8.108e+3, -1.367e+3, 8.222e+3, -9.6
2.610e-1, 8.240e+3, -1.467e+3, 8.369e+3, -10.1
2.154e-1, 8.381e+3, -1.578e+3, 8.528e+3, -10.7
1.778e-1, 8.530e+3, -1.701e+3, 8.697e+3, -11.3
1.468e-1, 8.685e+3, -1.834e+3, 8.876e+3, -11.9
1.212e-1, 8.850e+3, -1.979e+3, 9.068e+3, -12.6
1.000e-1, 9.028e+3, -2.134e+3, 9.277e+3, -13.3
