May 18, 2026   16:02:34
Cyclic Voltammetry
File: 100mv_s.bin
Data Source:  Experiment
Instrument Model:  CHI660D
Header: 
Note: 

Init E (V) = 0.6
High E (V) = 0.6
Low E (V) = 0
Init P/N = N
Scan Rate (V/s) = 0.1
Segment = 2
Sample Interval (V) = 0.001
Quiet Time (sec) = 2
Sensitivity (A/V) = 1e-5

Segment 1:
Ep = 0.180V
Eh = 0.241V
ip = 6.390e-5A
Ah = 4.214e-5C

Segment 2:
Ep = 0.253V
Eh = 0.193V
ip = -5.582e-5A
Ah = -3.553e-5C

Potential/V, Current/A, Charge/C, Time/s

Segment 1:
0.600, -4.459e-6, -4.459e-8, 1.000e-2
0.599, -4.199e-6, -8.658e-8, 2.000e-2
0.598, -4.141e-6, -1.280e-7, 3.000e-2
0.597, -4.078e-6, -1.688e-7, 4.000e-2
0.596, -4.061e-6, -2.094e-7, 5.000e-2
0.595, -4.006e-6, -2.494e-7, 6.000e-2
0.594, -3.999e-6, -2.894e-7, 7.000e-2
0.593, -3.949e-6, -3.289e-7, 8.000e-2
0.592, -3.943e-6, -3.683e-7, 9.000e-2
0.591, -3.896e-6, -4.073e-7, 1.000e-1
0.590, -3.893e-6, -4.462e-7, 1.100e-1
0.589, -3.850e-6, -4.847e-7, 1.200e-1
0.588, -3.846e-6, -5.232e-7, 1.300e-1
0.587, -3.801e-6, -5.612e-7, 1.400e-1
0.586, -3.800e-6, -5.992e-7, 1.500e-1
0.585, -3.758e-6, -6.368e-7, 1.600e-1
0.584, -3.757e-6, -6.743e-7, 1.700e-1
0.583, -3.712e-6, -7.115e-7, 1.800e-1
0.582, -3.713e-6, -7.486e-7, 1.900e-1
0.581, -3.675e-6, -7.853e-7, 2.000e-1
0.580, -3.675e-6, -8.221e-7, 2.100e-1
0.579, -3.635e-6, -8.584e-7, 2.200e-1
0.578, -3.636e-6, -8.948e-7, 2.300e-1
0.577, -3.595e-6, -9.308e-7, 2.400e-1
0.576, -3.596e-6, -9.667e-7, 2.500e-1
0.575, -3.558e-6, -1.002e-6, 2.600e-1
0.574, -3.564e-6, -1.038e-6, 2.700e-1
0.573, -3.524e-6, -1.073e-6, 2.800e-1
0.572, -3.527e-6, -1.108e-6, 2.900e-1
0.571, -3.490e-6, -1.143e-6, 3.000e-1
0.570, -3.491e-6, -1.178e-6, 3.100e-1
0.569, -3.452e-6, -1.213e-6, 3.200e-1
0.568, -3.461e-6, -1.247e-6, 3.300e-1
0.567, -3.422e-6, -1.282e-6, 3.400e-1
0.566, -3.425e-6, -1.316e-6, 3.500e-1
0.565, -3.390e-6, -1.350e-6, 3.600e-1
0.564, -3.395e-6, -1.384e-6, 3.700e-1
0.563, -3.363e-6, -1.417e-6, 3.800e-1
0.562, -3.364e-6, -1.451e-6, 3.900e-1
0.561, -3.327e-6, -1.484e-6, 4.000e-1
0.560, -3.332e-6, -1.518e-6, 4.100e-1
0.559, -3.298e-6, -1.551e-6, 4.200e-1
0.558, -3.301e-6, -1.584e-6, 4.300e-1
0.557, -3.266e-6, -1.616e-6, 4.400e-1
0.556, -3.272e-6, -1.649e-6, 4.500e-1
0.555, -3.240e-6, -1.681e-6, 4.600e-1
0.554, -3.243e-6, -1.714e-6, 4.700e-1
0.553, -3.211e-6, -1.746e-6, 4.800e-1
0.552, -3.216e-6, -1.778e-6, 4.900e-1
0.551, -3.182e-6, -1.810e-6, 5.000e-1
0.550, -3.188e-6, -1.842e-6, 5.100e-1
0.549, -3.154e-6, -1.873e-6, 5.200e-1
0.548, -3.160e-6, -1.905e-6, 5.300e-1
0.547, -3.131e-6, -1.936e-6, 5.400e-1
0.546, -3.135e-6, -1.968e-6, 5.500e-1
0.545, -3.100e-6, -1.999e-6, 5.600e-1
0.544, -3.110e-6, -2.030e-6, 5.700e-1
0.543, -3.074e-6, -2.060e-6, 5.800e-1
0.542, -3.083e-6, -2.091e-6, 5.900e-1
0.541, -3.051e-6, -2.122e-6, 6.000e-1
0.540, -3.057e-6, -2.152e-6, 6.100e-1
0.539, -3.025e-6, -2.183e-6, 6.200e-1
0.538, -3.033e-6, -2.213e-6, 6.300e-1
0.537, -3.001e-6, -2.243e-6, 6.400e-1
0.536, -3.010e-6, -2.273e-6, 6.500e-1
0.535, -2.975e-6, -2.303e-6, 6.600e-1
0.534, -2.985e-6, -2.333e-6, 6.700e-1
0.533, -2.953e-6, -2.362e-6, 6.800e-1
0.532, -2.961e-6, -2.392e-6, 6.900e-1
0.531, -2.927e-6, -2.421e-6, 7.000e-1
0.530, -2.938e-6, -2.450e-6, 7.100e-1
0.529, -2.906e-6, -2.479e-6, 7.200e-1
0.528, -2.914e-6, -2.509e-6, 7.300e-1
0.527, -2.881e-6, -2.537e-6, 7.400e-1
0.526, -2.893e-6, -2.566e-6, 7.500e-1
0.525, -2.860e-6, -2.595e-6, 7.600e-1
0.524, -2.871e-6, -2.624e-6, 7.700e-1
0.523, -2.839e-6, -2.652e-6, 7.800e-1
0.522, -2.847e-6, -2.680e-6, 7.900e-1
0.521, -2.818e-6, -2.709e-6, 8.000e-1
0.520, -2.826e-6, -2.737e-6, 8.100e-1
0.519, -2.794e-6, -2.765e-6, 8.200e-1
0.518, -2.803e-6, -2.793e-6, 8.300e-1
0.517, -2.774e-6, -2.821e-6, 8.400e-1
0.516, -2.783e-6, -2.848e-6, 8.500e-1
0.515, -2.753e-6, -2.876e-6, 8.600e-1
0.514, -2.763e-6, -2.904e-6, 8.700e-1
0.513, -2.732e-6, -2.931e-6, 8.800e-1
0.512, -2.740e-6, -2.958e-6, 8.900e-1
0.511, -2.710e-6, -2.985e-6, 9.000e-1
0.510, -2.722e-6, -3.013e-6, 9.100e-1
0.509, -2.693e-6, -3.040e-6, 9.200e-1
0.508, -2.703e-6, -3.067e-6, 9.300e-1
0.507, -2.673e-6, -3.093e-6, 9.400e-1
0.506, -2.684e-6, -3.120e-6, 9.500e-1
0.505, -2.653e-6, -3.147e-6, 9.600e-1
0.504, -2.663e-6, -3.173e-6, 9.700e-1
0.503, -2.632e-6, -3.200e-6, 9.800e-1
0.502, -2.644e-6, -3.226e-6, 9.900e-1
0.501, -2.614e-6, -3.252e-6, 1.000e+0
0.500, -2.621e-6, -3.278e-6, 1.010e+0
0.499, -2.595e-6, -3.304e-6, 1.020e+0
0.498, -2.606e-6, -3.330e-6, 1.030e+0
0.497, -2.576e-6, -3.356e-6, 1.040e+0
0.496, -2.587e-6, -3.382e-6, 1.050e+0
0.495, -2.559e-6, -3.408e-6, 1.060e+0
0.494, -2.568e-6, -3.433e-6, 1.070e+0
0.493, -2.539e-6, -3.459e-6, 1.080e+0
0.492, -2.548e-6, -3.484e-6, 1.090e+0
0.491, -2.523e-6, -3.509e-6, 1.100e+0
0.490, -2.532e-6, -3.535e-6, 1.110e+0
0.489, -2.506e-6, -3.560e-6, 1.120e+0
0.488, -2.514e-6, -3.585e-6, 1.130e+0
0.487, -2.485e-6, -3.610e-6, 1.140e+0
0.486, -2.497e-6, -3.635e-6, 1.150e+0
0.485, -2.469e-6, -3.660e-6, 1.160e+0
0.484, -2.477e-6, -3.684e-6, 1.170e+0
0.483, -2.451e-6, -3.709e-6, 1.180e+0
0.482, -2.460e-6, -3.733e-6, 1.190e+0
0.481, -2.434e-6, -3.758e-6, 1.200e+0
0.480, -2.445e-6, -3.782e-6, 1.210e+0
0.479, -2.415e-6, -3.806e-6, 1.220e+0
0.478, -2.426e-6, -3.831e-6, 1.230e+0
0.477, -2.401e-6, -3.855e-6, 1.240e+0
0.476, -2.408e-6, -3.879e-6, 1.250e+0
0.475, -2.383e-6, -3.902e-6, 1.260e+0
0.474, -2.392e-6, -3.926e-6, 1.270e+0
0.473, -2.366e-6, -3.950e-6, 1.280e+0
0.472, -2.375e-6, -3.974e-6, 1.290e+0
0.471, -2.348e-6, -3.997e-6, 1.300e+0
0.470, -2.359e-6, -4.021e-6, 1.310e+0
0.469, -2.332e-6, -4.044e-6, 1.320e+0
0.468, -2.341e-6, -4.068e-6, 1.330e+0
0.467, -2.315e-6, -4.091e-6, 1.340e+0
0.466, -2.325e-6, -4.114e-6, 1.350e+0
0.465, -2.300e-6, -4.137e-6, 1.360e+0
0.464, -2.309e-6, -4.160e-6, 1.370e+0
0.463, -2.283e-6, -4.183e-6, 1.380e+0
0.462, -2.295e-6, -4.206e-6, 1.390e+0
0.461, -2.271e-6, -4.229e-6, 1.400e+0
0.460, -2.278e-6, -4.251e-6, 1.410e+0
0.459, -2.250e-6, -4.274e-6, 1.420e+0
0.458, -2.261e-6, -4.297e-6, 1.430e+0
0.457, -2.236e-6, -4.319e-6, 1.440e+0
0.456, -2.246e-6, -4.341e-6, 1.450e+0
0.455, -2.220e-6, -4.364e-6, 1.460e+0
0.454, -2.227e-6, -4.386e-6, 1.470e+0
0.453, -2.203e-6, -4.408e-6, 1.480e+0
0.452, -2.212e-6, -4.430e-6, 1.490e+0
0.451, -2.188e-6, -4.452e-6, 1.500e+0
0.450, -2.197e-6, -4.474e-6, 1.510e+0
0.449, -2.171e-6, -4.495e-6, 1.520e+0
0.448, -2.178e-6, -4.517e-6, 1.530e+0
0.447, -2.155e-6, -4.539e-6, 1.540e+0
0.446, -2.164e-6, -4.560e-6, 1.550e+0
0.445, -2.138e-6, -4.582e-6, 1.560e+0
0.444, -2.147e-6, -4.603e-6, 1.570e+0
0.443, -2.125e-6, -4.625e-6, 1.580e+0
0.442, -2.131e-6, -4.646e-6, 1.590e+0
0.441, -2.107e-6, -4.667e-6, 1.600e+0
0.440, -2.117e-6, -4.688e-6, 1.610e+0
0.439, -2.091e-6, -4.709e-6, 1.620e+0
0.438, -2.098e-6, -4.730e-6, 1.630e+0
0.437, -2.076e-6, -4.751e-6, 1.640e+0
0.436, -2.082e-6, -4.772e-6, 1.650e+0
0.435, -2.061e-6, -4.792e-6, 1.660e+0
0.434, -2.068e-6, -4.813e-6, 1.670e+0
0.433, -2.043e-6, -4.833e-6, 1.680e+0
0.432, -2.050e-6, -4.854e-6, 1.690e+0
0.431, -2.026e-6, -4.874e-6, 1.700e+0
0.430, -2.032e-6, -4.894e-6, 1.710e+0
0.429, -2.010e-6, -4.915e-6, 1.720e+0
0.428, -2.017e-6, -4.935e-6, 1.730e+0
0.427, -1.994e-6, -4.955e-6, 1.740e+0
0.426, -1.999e-6, -4.975e-6, 1.750e+0
0.425, -1.975e-6, -4.994e-6, 1.760e+0
0.424, -1.984e-6, -5.014e-6, 1.770e+0
0.423, -1.959e-6, -5.034e-6, 1.780e+0
0.422, -1.964e-6, -5.053e-6, 1.790e+0
0.421, -1.943e-6, -5.073e-6, 1.800e+0
0.420, -1.948e-6, -5.092e-6, 1.810e+0
0.419, -1.925e-6, -5.112e-6, 1.820e+0
0.418, -1.932e-6, -5.131e-6, 1.830e+0
0.417, -1.906e-6, -5.150e-6, 1.840e+0
0.416, -1.914e-6, -5.169e-6, 1.850e+0
0.415, -1.889e-6, -5.188e-6, 1.860e+0
0.414, -1.894e-6, -5.207e-6, 1.870e+0
0.413, -1.871e-6, -5.226e-6, 1.880e+0
0.412, -1.878e-6, -5.244e-6, 1.890e+0
0.411, -1.852e-6, -5.263e-6, 1.900e+0
0.410, -1.870e-6, -5.282e-6, 1.910e+0
0.409, -1.845e-6, -5.300e-6, 1.920e+0
0.408, -1.844e-6, -5.319e-6, 1.930e+0
0.407, -1.815e-6, -5.337e-6, 1.940e+0
0.406, -1.819e-6, -5.355e-6, 1.950e+0
0.405, -1.793e-6, -5.373e-6, 1.960e+0
0.404, -1.798e-6, -5.391e-6, 1.970e+0
0.403, -1.773e-6, -5.409e-6, 1.980e+0
0.402, -1.778e-6, -5.426e-6, 1.990e+0
0.401, -1.753e-6, -5.444e-6, 2.000e+0
0.400, -1.757e-6, -5.461e-6, 2.010e+0
0.399, -1.730e-6, -5.479e-6, 2.020e+0
0.398, -1.734e-6, -5.496e-6, 2.030e+0
0.397, -1.709e-6, -5.513e-6, 2.040e+0
0.396, -1.711e-6, -5.530e-6, 2.050e+0
0.395, -1.684e-6, -5.547e-6, 2.060e+0
0.394, -1.688e-6, -5.564e-6, 2.070e+0
0.393, -1.661e-6, -5.581e-6, 2.080e+0
0.392, -1.665e-6, -5.597e-6, 2.090e+0
0.391, -1.634e-6, -5.614e-6, 2.100e+0
0.390, -1.638e-6, -5.630e-6, 2.110e+0
0.389, -1.612e-6, -5.646e-6, 2.120e+0
0.388, -1.613e-6, -5.662e-6, 2.130e+0
0.387, -1.584e-6, -5.678e-6, 2.140e+0
0.386, -1.585e-6, -5.694e-6, 2.150e+0
0.385, -1.556e-6, -5.709e-6, 2.160e+0
0.384, -1.558e-6, -5.725e-6, 2.170e+0
0.383, -1.529e-6, -5.740e-6, 2.180e+0
0.382, -1.527e-6, -5.756e-6, 2.190e+0
0.381, -1.497e-6, -5.771e-6, 2.200e+0
0.380, -1.494e-6, -5.785e-6, 2.210e+0
0.379, -1.467e-6, -5.800e-6, 2.220e+0
0.378, -1.464e-6, -5.815e-6, 2.230e+0
0.377, -1.431e-6, -5.829e-6, 2.240e+0
0.376, -1.431e-6, -5.843e-6, 2.250e+0
0.375, -1.398e-6, -5.857e-6, 2.260e+0
0.374, -1.395e-6, -5.871e-6, 2.270e+0
0.373, -1.361e-6, -5.885e-6, 2.280e+0
0.372, -1.355e-6, -5.898e-6, 2.290e+0
0.371, -1.324e-6, -5.912e-6, 2.300e+0
0.370, -1.317e-6, -5.925e-6, 2.310e+0
0.369, -1.283e-6, -5.938e-6, 2.320e+0
0.368, -1.275e-6, -5.950e-6, 2.330e+0
0.367, -1.241e-6, -5.963e-6, 2.340e+0
0.366, -1.229e-6, -5.975e-6, 2.350e+0
0.365, -1.195e-6, -5.987e-6, 2.360e+0
0.364, -1.184e-6, -5.999e-6, 2.370e+0
0.363, -1.149e-6, -6.010e-6, 2.380e+0
0.362, -1.137e-6, -6.022e-6, 2.390e+0
0.361, -1.098e-6, -6.033e-6, 2.400e+0
0.360, -1.083e-6, -6.044e-6, 2.410e+0
0.359, -1.048e-6, -6.054e-6, 2.420e+0
0.358, -1.036e-6, -6.064e-6, 2.430e+0
0.357, -9.920e-7, -6.074e-6, 2.440e+0
0.356, -9.701e-7, -6.084e-6, 2.450e+0
0.355, -9.290e-7, -6.093e-6, 2.460e+0
0.354, -9.097e-7, -6.102e-6, 2.470e+0
0.353, -8.667e-7, -6.111e-6, 2.480e+0
0.352, -8.426e-7, -6.120e-6, 2.490e+0
0.351, -7.957e-7, -6.128e-6, 2.500e+0
0.350, -7.750e-7, -6.135e-6, 2.510e+0
0.349, -7.257e-7, -6.143e-6, 2.520e+0
0.348, -6.985e-7, -6.150e-6, 2.530e+0
0.347, -6.526e-7, -6.156e-6, 2.540e+0
0.346, -6.167e-7, -6.162e-6, 2.550e+0
0.345, -5.666e-7, -6.168e-6, 2.560e+0
0.344, -5.365e-7, -6.173e-6, 2.570e+0
0.343, -4.791e-7, -6.178e-6, 2.580e+0
0.342, -4.441e-7, -6.182e-6, 2.590e+0
0.341, -3.882e-7, -6.186e-6, 2.600e+0
0.340, -3.453e-7, -6.190e-6, 2.610e+0
0.339, -2.860e-7, -6.193e-6, 2.620e+0
0.338, -2.436e-7, -6.195e-6, 2.630e+0
0.337, -1.820e-7, -6.197e-6, 2.640e+0
0.336, -1.393e-7, -6.198e-6, 2.650e+0
0.335, -6.600e-8, -6.199e-6, 2.660e+0
0.334, -1.610e-8, -6.199e-6, 2.670e+0
0.333, 5.343e-8, -6.199e-6, 2.680e+0
0.332, 1.058e-7, -6.198e-6, 2.690e+0
0.331, 1.802e-7, -6.196e-6, 2.700e+0
0.330, 2.401e-7, -6.193e-6, 2.710e+0
0.329, 3.180e-7, -6.190e-6, 2.720e+0
0.328, 3.846e-7, -6.186e-6, 2.730e+0
0.327, 4.686e-7, -6.182e-6, 2.740e+0
0.326, 5.372e-7, -6.176e-6, 2.750e+0
0.325, 6.273e-7, -6.170e-6, 2.760e+0
0.324, 7.018e-7, -6.163e-6, 2.770e+0
0.323, 7.973e-7, -6.155e-6, 2.780e+0
0.322, 8.781e-7, -6.146e-6, 2.790e+0
0.321, 9.783e-7, -6.136e-6, 2.800e+0
0.320, 1.069e-6, -6.126e-6, 2.810e+0
0.319, 1.173e-6, -6.114e-6, 2.820e+0
0.318, 1.271e-6, -6.101e-6, 2.830e+0
0.317, 1.379e-6, -6.088e-6, 2.840e+0
0.316, 1.486e-6, -6.073e-6, 2.850e+0
0.315, 1.603e-6, -6.057e-6, 2.860e+0
0.314, 1.718e-6, -6.039e-6, 2.870e+0
0.313, 1.845e-6, -6.021e-6, 2.880e+0
0.312, 1.962e-6, -6.001e-6, 2.890e+0
0.311, 2.098e-6, -5.980e-6, 2.900e+0
0.310, 2.231e-6, -5.958e-6, 2.910e+0
0.309, 2.366e-6, -5.934e-6, 2.920e+0
0.308, 2.508e-6, -5.909e-6, 2.930e+0
0.307, 2.662e-6, -5.883e-6, 2.940e+0
0.306, 2.816e-6, -5.855e-6, 2.950e+0
0.305, 2.971e-6, -5.825e-6, 2.960e+0
0.304, 3.136e-6, -5.794e-6, 2.970e+0
0.303, 3.307e-6, -5.760e-6, 2.980e+0
0.302, 3.476e-6, -5.726e-6, 2.990e+0
0.301, 3.661e-6, -5.689e-6, 3.000e+0
0.300, 3.850e-6, -5.651e-6, 3.010e+0
0.299, 4.036e-6, -5.610e-6, 3.020e+0
0.298, 4.243e-6, -5.568e-6, 3.030e+0
0.297, 4.446e-6, -5.523e-6, 3.040e+0
0.296, 4.653e-6, -5.477e-6, 3.050e+0
0.295, 4.874e-6, -5.428e-6, 3.060e+0
0.294, 5.108e-6, -5.377e-6, 3.070e+0
0.293, 5.330e-6, -5.324e-6, 3.080e+0
0.292, 5.583e-6, -5.268e-6, 3.090e+0
0.291, 5.826e-6, -5.210e-6, 3.100e+0
0.290, 6.091e-6, -5.149e-6, 3.110e+0
0.289, 6.344e-6, -5.085e-6, 3.120e+0
0.288, 6.631e-6, -5.019e-6, 3.130e+0
0.287, 6.908e-6, -4.950e-6, 3.140e+0
0.286, 7.205e-6, -4.878e-6, 3.150e+0
0.285, 7.496e-6, -4.803e-6, 3.160e+0
0.284, 7.812e-6, -4.725e-6, 3.170e+0
0.283, 8.111e-6, -4.644e-6, 3.180e+0
0.282, 8.448e-6, -4.559e-6, 3.190e+0
0.281, 8.757e-6, -4.472e-6, 3.200e+0
0.280, 9.134e-6, -4.380e-6, 3.210e+0
0.279, 9.477e-6, -4.285e-6, 3.220e+0
0.278, 9.859e-6, -4.187e-6, 3.230e+0
0.277, 1.022e-5, -4.085e-6, 3.240e+0
0.276, 1.063e-5, -3.978e-6, 3.250e+0
0.275, 1.100e-5, -3.868e-6, 3.260e+0
0.274, 1.142e-5, -3.754e-6, 3.270e+0
0.273, 1.183e-5, -3.636e-6, 3.280e+0
0.272, 1.228e-5, -3.513e-6, 3.290e+0
0.271, 1.270e-5, -3.386e-6, 3.300e+0
0.270, 1.317e-5, -3.254e-6, 3.310e+0
0.269, 1.361e-5, -3.118e-6, 3.320e+0
0.268, 1.412e-5, -2.977e-6, 3.330e+0
0.267, 1.457e-5, -2.831e-6, 3.340e+0
0.266, 1.510e-5, -2.680e-6, 3.350e+0
0.265, 1.558e-5, -2.525e-6, 3.360e+0
0.264, 1.614e-5, -2.363e-6, 3.370e+0
0.263, 1.664e-5, -2.197e-6, 3.380e+0
0.262, 1.722e-5, -2.025e-6, 3.390e+0
0.261, 1.775e-5, -1.847e-6, 3.400e+0
0.260, 1.834e-5, -1.664e-6, 3.410e+0
0.259, 1.889e-5, -1.475e-6, 3.420e+0
0.258, 1.951e-5, -1.280e-6, 3.430e+0
0.257, 2.008e-5, -1.079e-6, 3.440e+0
0.256, 2.070e-5, -8.721e-7, 3.450e+0
0.255, 2.127e-5, -6.594e-7, 3.460e+0
0.254, 2.197e-5, -4.397e-7, 3.470e+0
0.253, 2.257e-5, -2.140e-7, 3.480e+0
0.252, 2.329e-5, 1.897e-8, 3.490e+0
0.251, 2.390e-5, 2.580e-7, 3.500e+0
0.250, 2.464e-5, 5.044e-7, 3.510e+0
0.249, 2.529e-5, 7.573e-7, 3.520e+0
0.248, 2.603e-5, 1.018e-6, 3.530e+0
0.247, 2.670e-5, 1.285e-6, 3.540e+0
0.246, 2.747e-5, 1.559e-6, 3.550e+0
0.245, 2.812e-5, 1.841e-6, 3.560e+0
0.244, 2.893e-5, 2.130e-6, 3.570e+0
0.243, 2.961e-5, 2.426e-6, 3.580e+0
0.242, 3.044e-5, 2.730e-6, 3.590e+0
0.241, 3.114e-5, 3.042e-6, 3.600e+0
0.240, 3.196e-5, 3.361e-6, 3.610e+0
0.239, 3.267e-5, 3.688e-6, 3.620e+0
0.238, 3.349e-5, 4.023e-6, 3.630e+0
0.237, 3.423e-5, 4.365e-6, 3.640e+0
0.236, 3.509e-5, 4.716e-6, 3.650e+0
0.235, 3.579e-5, 5.074e-6, 3.660e+0
0.234, 3.664e-5, 5.440e-6, 3.670e+0
0.233, 3.736e-5, 5.814e-6, 3.680e+0
0.232, 3.821e-5, 6.196e-6, 3.690e+0
0.231, 3.894e-5, 6.586e-6, 3.700e+0
0.230, 3.978e-5, 6.983e-6, 3.710e+0
0.229, 4.050e-5, 7.388e-6, 3.720e+0
0.228, 4.137e-5, 7.802e-6, 3.730e+0
0.227, 4.209e-5, 8.223e-6, 3.740e+0
0.226, 4.296e-5, 8.653e-6, 3.750e+0
0.225, 4.366e-5, 9.089e-6, 3.760e+0
0.224, 4.451e-5, 9.534e-6, 3.770e+0
0.223, 4.521e-5, 9.986e-6, 3.780e+0
0.222, 4.605e-5, 1.045e-5, 3.790e+0
0.221, 4.672e-5, 1.091e-5, 3.800e+0
0.220, 4.755e-5, 1.139e-5, 3.810e+0
0.219, 4.821e-5, 1.187e-5, 3.820e+0
0.218, 4.903e-5, 1.236e-5, 3.830e+0
0.217, 4.967e-5, 1.286e-5, 3.840e+0
0.216, 5.042e-5, 1.336e-5, 3.850e+0
0.215, 5.105e-5, 1.387e-5, 3.860e+0
0.214, 5.181e-5, 1.439e-5, 3.870e+0
0.213, 5.238e-5, 1.492e-5, 3.880e+0
0.212, 5.313e-5, 1.545e-5, 3.890e+0
0.211, 5.368e-5, 1.598e-5, 3.900e+0
0.210, 5.440e-5, 1.653e-5, 3.910e+0
0.209, 5.490e-5, 1.708e-5, 3.920e+0
0.208, 5.555e-5, 1.763e-5, 3.930e+0
0.207, 5.604e-5, 1.819e-5, 3.940e+0
0.206, 5.669e-5, 1.876e-5, 3.950e+0
0.205, 5.721e-5, 1.933e-5, 3.960e+0
0.204, 5.787e-5, 1.991e-5, 3.970e+0
0.203, 5.826e-5, 2.049e-5, 3.980e+0
0.202, 5.881e-5, 2.108e-5, 3.990e+0
0.201, 5.918e-5, 2.167e-5, 4.000e+0
0.200, 5.968e-5, 2.227e-5, 4.010e+0
0.199, 6.003e-5, 2.287e-5, 4.020e+0
0.198, 6.050e-5, 2.347e-5, 4.030e+0
0.197, 6.077e-5, 2.408e-5, 4.040e+0
0.196, 6.120e-5, 2.469e-5, 4.050e+0
0.195, 6.144e-5, 2.531e-5, 4.060e+0
0.194, 6.182e-5, 2.593e-5, 4.070e+0
0.193, 6.202e-5, 2.655e-5, 4.080e+0
0.192, 6.239e-5, 2.717e-5, 4.090e+0
0.191, 6.256e-5, 2.780e-5, 4.100e+0
0.190, 6.285e-5, 2.842e-5, 4.110e+0
0.189, 6.298e-5, 2.905e-5, 4.120e+0
0.188, 6.322e-5, 2.969e-5, 4.130e+0
0.187, 6.330e-5, 3.032e-5, 4.140e+0
0.186, 6.352e-5, 3.096e-5, 4.150e+0
0.185, 6.357e-5, 3.159e-5, 4.160e+0
0.184, 6.373e-5, 3.223e-5, 4.170e+0
0.183, 6.375e-5, 3.287e-5, 4.180e+0
0.182, 6.388e-5, 3.350e-5, 4.190e+0
0.181, 6.386e-5, 3.414e-5, 4.200e+0
0.180, 6.395e-5, 3.478e-5, 4.210e+0
0.179, 6.388e-5, 3.542e-5, 4.220e+0
0.178, 6.394e-5, 3.606e-5, 4.230e+0
0.177, 6.384e-5, 3.670e-5, 4.240e+0
0.176, 6.386e-5, 3.734e-5, 4.250e+0
0.175, 6.374e-5, 3.798e-5, 4.260e+0
0.174, 6.373e-5, 3.861e-5, 4.270e+0
0.173, 6.359e-5, 3.925e-5, 4.280e+0
0.172, 6.354e-5, 3.988e-5, 4.290e+0
0.171, 6.337e-5, 4.052e-5, 4.300e+0
0.170, 6.330e-5, 4.115e-5, 4.310e+0
0.169, 6.310e-5, 4.178e-5, 4.320e+0
0.168, 6.299e-5, 4.241e-5, 4.330e+0
0.167, 6.277e-5, 4.304e-5, 4.340e+0
0.166, 6.266e-5, 4.367e-5, 4.350e+0
0.165, 6.241e-5, 4.429e-5, 4.360e+0
0.164, 6.227e-5, 4.491e-5, 4.370e+0
0.163, 6.201e-5, 4.553e-5, 4.380e+0
0.162, 6.185e-5, 4.615e-5, 4.390e+0
0.161, 6.157e-5, 4.677e-5, 4.400e+0
0.160, 6.141e-5, 4.738e-5, 4.410e+0
0.159, 6.113e-5, 4.799e-5, 4.420e+0
0.158, 6.093e-5, 4.860e-5, 4.430e+0
0.157, 6.064e-5, 4.921e-5, 4.440e+0
0.156, 6.041e-5, 4.981e-5, 4.450e+0
0.155, 6.012e-5, 5.041e-5, 4.460e+0
0.154, 5.988e-5, 5.101e-5, 4.470e+0
0.153, 5.956e-5, 5.161e-5, 4.480e+0
0.152, 5.934e-5, 5.220e-5, 4.490e+0
0.151, 5.903e-5, 5.279e-5, 4.500e+0
0.150, 5.879e-5, 5.338e-5, 4.510e+0
0.149, 5.847e-5, 5.396e-5, 4.520e+0
0.148, 5.823e-5, 5.455e-5, 4.530e+0
0.147, 5.791e-5, 5.513e-5, 4.540e+0
0.146, 5.765e-5, 5.570e-5, 4.550e+0
0.145, 5.733e-5, 5.627e-5, 4.560e+0
0.144, 5.707e-5, 5.685e-5, 4.570e+0
0.143, 5.675e-5, 5.741e-5, 4.580e+0
0.142, 5.648e-5, 5.798e-5, 4.590e+0
0.141, 5.616e-5, 5.854e-5, 4.600e+0
0.140, 5.591e-5, 5.910e-5, 4.610e+0
0.139, 5.558e-5, 5.965e-5, 4.620e+0
0.138, 5.532e-5, 6.021e-5, 4.630e+0
0.137, 5.500e-5, 6.076e-5, 4.640e+0
0.136, 5.474e-5, 6.131e-5, 4.650e+0
0.135, 5.441e-5, 6.185e-5, 4.660e+0
0.134, 5.415e-5, 6.239e-5, 4.670e+0
0.133, 5.384e-5, 6.293e-5, 4.680e+0
0.132, 5.358e-5, 6.346e-5, 4.690e+0
0.131, 5.326e-5, 6.400e-5, 4.700e+0
0.130, 5.300e-5, 6.453e-5, 4.710e+0
0.129, 5.270e-5, 6.505e-5, 4.720e+0
0.128, 5.243e-5, 6.558e-5, 4.730e+0
0.127, 5.213e-5, 6.610e-5, 4.740e+0
0.126, 5.188e-5, 6.662e-5, 4.750e+0
0.125, 5.159e-5, 6.713e-5, 4.760e+0
0.124, 5.133e-5, 6.765e-5, 4.770e+0
0.123, 5.104e-5, 6.816e-5, 4.780e+0
0.122, 5.080e-5, 6.867e-5, 4.790e+0
0.121, 5.051e-5, 6.917e-5, 4.800e+0
0.120, 5.027e-5, 6.967e-5, 4.810e+0
0.119, 4.999e-5, 7.017e-5, 4.820e+0
0.118, 4.975e-5, 7.067e-5, 4.830e+0
0.117, 4.947e-5, 7.117e-5, 4.840e+0
0.116, 4.924e-5, 7.166e-5, 4.850e+0
0.115, 4.898e-5, 7.215e-5, 4.860e+0
0.114, 4.874e-5, 7.264e-5, 4.870e+0
0.113, 4.848e-5, 7.312e-5, 4.880e+0
0.112, 4.825e-5, 7.360e-5, 4.890e+0
0.111, 4.800e-5, 7.408e-5, 4.900e+0
0.110, 4.777e-5, 7.456e-5, 4.910e+0
0.109, 4.752e-5, 7.504e-5, 4.920e+0
0.108, 4.731e-5, 7.551e-5, 4.930e+0
0.107, 4.706e-5, 7.598e-5, 4.940e+0
0.106, 4.685e-5, 7.645e-5, 4.950e+0
0.105, 4.661e-5, 7.691e-5, 4.960e+0
0.104, 4.640e-5, 7.738e-5, 4.970e+0
0.103, 4.617e-5, 7.784e-5, 4.980e+0
0.102, 4.597e-5, 7.830e-5, 4.990e+0
0.101, 4.574e-5, 7.876e-5, 5.000e+0
0.100, 4.555e-5, 7.921e-5, 5.010e+0
0.099, 4.533e-5, 7.967e-5, 5.020e+0
0.098, 4.513e-5, 8.012e-5, 5.030e+0
0.097, 4.492e-5, 8.057e-5, 5.040e+0
0.096, 4.473e-5, 8.101e-5, 5.050e+0
0.095, 4.452e-5, 8.146e-5, 5.060e+0
0.094, 4.433e-5, 8.190e-5, 5.070e+0
0.093, 4.413e-5, 8.234e-5, 5.080e+0
0.092, 4.395e-5, 8.278e-5, 5.090e+0
0.091, 4.375e-5, 8.322e-5, 5.100e+0
0.090, 4.358e-5, 8.366e-5, 5.110e+0
0.089, 4.339e-5, 8.409e-5, 5.120e+0
0.088, 4.322e-5, 8.452e-5, 5.130e+0
0.087, 4.303e-5, 8.495e-5, 5.140e+0
0.086, 4.286e-5, 8.538e-5, 5.150e+0
0.085, 4.268e-5, 8.581e-5, 5.160e+0
0.084, 4.252e-5, 8.623e-5, 5.170e+0
0.083, 4.234e-5, 8.666e-5, 5.180e+0
0.082, 4.218e-5, 8.708e-5, 5.190e+0
0.081, 4.201e-5, 8.750e-5, 5.200e+0
0.080, 4.185e-5, 8.792e-5, 5.210e+0
0.079, 4.168e-5, 8.833e-5, 5.220e+0
0.078, 4.153e-5, 8.875e-5, 5.230e+0
0.077, 4.137e-5, 8.916e-5, 5.240e+0
0.076, 4.123e-5, 8.958e-5, 5.250e+0
0.075, 4.106e-5, 8.999e-5, 5.260e+0
0.074, 4.092e-5, 9.039e-5, 5.270e+0
0.073, 4.077e-5, 9.080e-5, 5.280e+0
0.072, 4.063e-5, 9.121e-5, 5.290e+0
0.071, 4.048e-5, 9.161e-5, 5.300e+0
0.070, 4.035e-5, 9.202e-5, 5.310e+0
0.069, 4.020e-5, 9.242e-5, 5.320e+0
0.068, 4.007e-5, 9.282e-5, 5.330e+0
0.067, 3.992e-5, 9.322e-5, 5.340e+0
0.066, 3.980e-5, 9.362e-5, 5.350e+0
0.065, 3.966e-5, 9.401e-5, 5.360e+0
0.064, 3.954e-5, 9.441e-5, 5.370e+0
0.063, 3.940e-5, 9.480e-5, 5.380e+0
0.062, 3.928e-5, 9.520e-5, 5.390e+0
0.061, 3.915e-5, 9.559e-5, 5.400e+0
0.060, 3.903e-5, 9.598e-5, 5.410e+0
0.059, 3.890e-5, 9.637e-5, 5.420e+0
0.058, 3.879e-5, 9.675e-5, 5.430e+0
0.057, 3.866e-5, 9.714e-5, 5.440e+0
0.056, 3.856e-5, 9.753e-5, 5.450e+0
0.055, 3.843e-5, 9.791e-5, 5.460e+0
0.054, 3.833e-5, 9.829e-5, 5.470e+0
0.053, 3.821e-5, 9.868e-5, 5.480e+0
0.052, 3.810e-5, 9.906e-5, 5.490e+0
0.051, 3.798e-5, 9.944e-5, 5.500e+0
0.050, 3.789e-5, 9.982e-5, 5.510e+0
0.049, 3.777e-5, 1.002e-4, 5.520e+0
0.048, 3.768e-5, 1.006e-4, 5.530e+0
0.047, 3.757e-5, 1.009e-4, 5.540e+0
0.046, 3.747e-5, 1.013e-4, 5.550e+0
0.045, 3.737e-5, 1.017e-4, 5.560e+0
0.044, 3.728e-5, 1.021e-4, 5.570e+0
0.043, 3.717e-5, 1.024e-4, 5.580e+0
0.042, 3.708e-5, 1.028e-4, 5.590e+0
0.041, 3.698e-5, 1.032e-4, 5.600e+0
0.040, 3.690e-5, 1.035e-4, 5.610e+0
0.039, 3.680e-5, 1.039e-4, 5.620e+0
0.038, 3.672e-5, 1.043e-4, 5.630e+0
0.037, 3.662e-5, 1.046e-4, 5.640e+0
0.036, 3.654e-5, 1.050e-4, 5.650e+0
0.035, 3.645e-5, 1.054e-4, 5.660e+0
0.034, 3.637e-5, 1.057e-4, 5.670e+0
0.033, 3.628e-5, 1.061e-4, 5.680e+0
0.032, 3.620e-5, 1.065e-4, 5.690e+0
0.031, 3.611e-5, 1.068e-4, 5.700e+0
0.030, 3.604e-5, 1.072e-4, 5.710e+0
0.029, 3.596e-5, 1.075e-4, 5.720e+0
0.028, 3.589e-5, 1.079e-4, 5.730e+0
0.027, 3.580e-5, 1.083e-4, 5.740e+0
0.026, 3.574e-5, 1.086e-4, 5.750e+0
0.025, 3.565e-5, 1.090e-4, 5.760e+0
0.024, 3.559e-5, 1.093e-4, 5.770e+0
0.023, 3.551e-5, 1.097e-4, 5.780e+0
0.022, 3.544e-5, 1.100e-4, 5.790e+0
0.021, 3.537e-5, 1.104e-4, 5.800e+0
0.020, 3.531e-5, 1.108e-4, 5.810e+0
0.019, 3.523e-5, 1.111e-4, 5.820e+0
0.018, 3.518e-5, 1.115e-4, 5.830e+0
0.017, 3.510e-5, 1.118e-4, 5.840e+0
0.016, 3.505e-5, 1.122e-4, 5.850e+0
0.015, 3.498e-5, 1.125e-4, 5.860e+0
0.014, 3.493e-5, 1.129e-4, 5.870e+0
0.013, 3.486e-5, 1.132e-4, 5.880e+0
0.012, 3.481e-5, 1.136e-4, 5.890e+0
0.011, 3.474e-5, 1.139e-4, 5.900e+0
0.010, 3.469e-5, 1.142e-4, 5.910e+0
0.009, 3.463e-5, 1.146e-4, 5.920e+0
0.008, 3.458e-5, 1.149e-4, 5.930e+0
0.007, 3.452e-5, 1.153e-4, 5.940e+0
0.006, 3.448e-5, 1.156e-4, 5.950e+0
0.005, 3.441e-5, 1.160e-4, 5.960e+0
0.004, 3.438e-5, 1.163e-4, 5.970e+0
0.003, 3.431e-5, 1.167e-4, 5.980e+0
0.002, 3.428e-5, 1.170e-4, 5.990e+0
0.001, 3.421e-5, 1.173e-4, 6.000e+0

Segment 2:
0.000, 3.394e-5, 1.177e-4, 6.010e+0
0.001, 3.337e-5, 1.180e-4, 6.020e+0
0.002, 3.309e-5, 1.183e-4, 6.030e+0
0.003, 3.285e-5, 1.187e-4, 6.040e+0
0.004, 3.267e-5, 1.190e-4, 6.050e+0
0.005, 3.248e-5, 1.193e-4, 6.060e+0
0.006, 3.232e-5, 1.197e-4, 6.070e+0
0.007, 3.214e-5, 1.200e-4, 6.080e+0
0.008, 3.200e-5, 1.203e-4, 6.090e+0
0.009, 3.184e-5, 1.206e-4, 6.100e+0
0.010, 3.170e-5, 1.209e-4, 6.110e+0
0.011, 3.155e-5, 1.212e-4, 6.120e+0
0.012, 3.141e-5, 1.216e-4, 6.130e+0
0.013, 3.126e-5, 1.219e-4, 6.140e+0
0.014, 3.114e-5, 1.222e-4, 6.150e+0
0.015, 3.100e-5, 1.225e-4, 6.160e+0
0.016, 3.088e-5, 1.228e-4, 6.170e+0
0.017, 3.074e-5, 1.231e-4, 6.180e+0
0.018, 3.063e-5, 1.234e-4, 6.190e+0
0.019, 3.049e-5, 1.237e-4, 6.200e+0
0.020, 3.039e-5, 1.240e-4, 6.210e+0
0.021, 3.026e-5, 1.243e-4, 6.220e+0
0.022, 3.015e-5, 1.246e-4, 6.230e+0
0.023, 3.002e-5, 1.249e-4, 6.240e+0
0.024, 2.992e-5, 1.252e-4, 6.250e+0
0.025, 2.980e-5, 1.255e-4, 6.260e+0
0.026, 2.970e-5, 1.258e-4, 6.270e+0
0.027, 2.958e-5, 1.261e-4, 6.280e+0
0.028, 2.948e-5, 1.264e-4, 6.290e+0
0.029, 2.936e-5, 1.267e-4, 6.300e+0
0.030, 2.926e-5, 1.270e-4, 6.310e+0
0.031, 2.915e-5, 1.273e-4, 6.320e+0
0.032, 2.905e-5, 1.276e-4, 6.330e+0
0.033, 2.894e-5, 1.279e-4, 6.340e+0
0.034, 2.885e-5, 1.282e-4, 6.350e+0
0.035, 2.874e-5, 1.284e-4, 6.360e+0
0.036, 2.865e-5, 1.287e-4, 6.370e+0
0.037, 2.854e-5, 1.290e-4, 6.380e+0
0.038, 2.845e-5, 1.293e-4, 6.390e+0
0.039, 2.834e-5, 1.296e-4, 6.400e+0
0.040, 2.826e-5, 1.299e-4, 6.410e+0
0.041, 2.815e-5, 1.302e-4, 6.420e+0
0.042, 2.806e-5, 1.304e-4, 6.430e+0
0.043, 2.795e-5, 1.307e-4, 6.440e+0
0.044, 2.787e-5, 1.310e-4, 6.450e+0
0.045, 2.777e-5, 1.313e-4, 6.460e+0
0.046, 2.768e-5, 1.315e-4, 6.470e+0
0.047, 2.758e-5, 1.318e-4, 6.480e+0
0.048, 2.750e-5, 1.321e-4, 6.490e+0
0.049, 2.740e-5, 1.324e-4, 6.500e+0
0.050, 2.732e-5, 1.326e-4, 6.510e+0
0.051, 2.722e-5, 1.329e-4, 6.520e+0
0.052, 2.714e-5, 1.332e-4, 6.530e+0
0.053, 2.704e-5, 1.335e-4, 6.540e+0
0.054, 2.696e-5, 1.337e-4, 6.550e+0
0.055, 2.686e-5, 1.340e-4, 6.560e+0
0.056, 2.678e-5, 1.343e-4, 6.570e+0
0.057, 2.668e-5, 1.345e-4, 6.580e+0
0.058, 2.660e-5, 1.348e-4, 6.590e+0
0.059, 2.650e-5, 1.351e-4, 6.600e+0
0.060, 2.642e-5, 1.353e-4, 6.610e+0
0.061, 2.632e-5, 1.356e-4, 6.620e+0
0.062, 2.624e-5, 1.358e-4, 6.630e+0
0.063, 2.614e-5, 1.361e-4, 6.640e+0
0.064, 2.607e-5, 1.364e-4, 6.650e+0
0.065, 2.597e-5, 1.366e-4, 6.660e+0
0.066, 2.589e-5, 1.369e-4, 6.670e+0
0.067, 2.579e-5, 1.371e-4, 6.680e+0
0.068, 2.571e-5, 1.374e-4, 6.690e+0
0.069, 2.562e-5, 1.377e-4, 6.700e+0
0.070, 2.554e-5, 1.379e-4, 6.710e+0
0.071, 2.544e-5, 1.382e-4, 6.720e+0
0.072, 2.536e-5, 1.384e-4, 6.730e+0
0.073, 2.526e-5, 1.387e-4, 6.740e+0
0.074, 2.518e-5, 1.389e-4, 6.750e+0
0.075, 2.508e-5, 1.392e-4, 6.760e+0
0.076, 2.500e-5, 1.394e-4, 6.770e+0
0.077, 2.490e-5, 1.397e-4, 6.780e+0
0.078, 2.482e-5, 1.399e-4, 6.790e+0
0.079, 2.471e-5, 1.402e-4, 6.800e+0
0.080, 2.463e-5, 1.404e-4, 6.810e+0
0.081, 2.453e-5, 1.407e-4, 6.820e+0
0.082, 2.445e-5, 1.409e-4, 6.830e+0
0.083, 2.434e-5, 1.412e-4, 6.840e+0
0.084, 2.426e-5, 1.414e-4, 6.850e+0
0.085, 2.415e-5, 1.416e-4, 6.860e+0
0.086, 2.407e-5, 1.419e-4, 6.870e+0
0.087, 2.395e-5, 1.421e-4, 6.880e+0
0.088, 2.387e-5, 1.424e-4, 6.890e+0
0.089, 2.376e-5, 1.426e-4, 6.900e+0
0.090, 2.367e-5, 1.428e-4, 6.910e+0
0.091, 2.355e-5, 1.431e-4, 6.920e+0
0.092, 2.347e-5, 1.433e-4, 6.930e+0
0.093, 2.335e-5, 1.435e-4, 6.940e+0
0.094, 2.326e-5, 1.438e-4, 6.950e+0
0.095, 2.314e-5, 1.440e-4, 6.960e+0
0.096, 2.304e-5, 1.442e-4, 6.970e+0
0.097, 2.292e-5, 1.445e-4, 6.980e+0
0.098, 2.283e-5, 1.447e-4, 6.990e+0
0.099, 2.269e-5, 1.449e-4, 7.000e+0
0.100, 2.259e-5, 1.451e-4, 7.010e+0
0.101, 2.246e-5, 1.454e-4, 7.020e+0
0.102, 2.236e-5, 1.456e-4, 7.030e+0
0.103, 2.222e-5, 1.458e-4, 7.040e+0
0.104, 2.212e-5, 1.460e-4, 7.050e+0
0.105, 2.197e-5, 1.463e-4, 7.060e+0
0.106, 2.187e-5, 1.465e-4, 7.070e+0
0.107, 2.172e-5, 1.467e-4, 7.080e+0
0.108, 2.161e-5, 1.469e-4, 7.090e+0
0.109, 2.145e-5, 1.471e-4, 7.100e+0
0.110, 2.134e-5, 1.473e-4, 7.110e+0
0.111, 2.118e-5, 1.475e-4, 7.120e+0
0.112, 2.106e-5, 1.478e-4, 7.130e+0
0.113, 2.090e-5, 1.480e-4, 7.140e+0
0.114, 2.077e-5, 1.482e-4, 7.150e+0
0.115, 2.060e-5, 1.484e-4, 7.160e+0
0.116, 2.047e-5, 1.486e-4, 7.170e+0
0.117, 2.029e-5, 1.488e-4, 7.180e+0
0.118, 2.015e-5, 1.490e-4, 7.190e+0
0.119, 1.996e-5, 1.492e-4, 7.200e+0
0.120, 1.983e-5, 1.494e-4, 7.210e+0
0.121, 1.962e-5, 1.496e-4, 7.220e+0
0.122, 1.947e-5, 1.498e-4, 7.230e+0
0.123, 1.926e-5, 1.500e-4, 7.240e+0
0.124, 1.911e-5, 1.502e-4, 7.250e+0
0.125, 1.889e-5, 1.503e-4, 7.260e+0
0.126, 1.873e-5, 1.505e-4, 7.270e+0
0.127, 1.850e-5, 1.507e-4, 7.280e+0
0.128, 1.834e-5, 1.509e-4, 7.290e+0
0.129, 1.810e-5, 1.511e-4, 7.300e+0
0.130, 1.792e-5, 1.513e-4, 7.310e+0
0.131, 1.766e-5, 1.514e-4, 7.320e+0
0.132, 1.747e-5, 1.516e-4, 7.330e+0
0.133, 1.721e-5, 1.518e-4, 7.340e+0
0.134, 1.701e-5, 1.520e-4, 7.350e+0
0.135, 1.673e-5, 1.521e-4, 7.360e+0
0.136, 1.651e-5, 1.523e-4, 7.370e+0
0.137, 1.622e-5, 1.525e-4, 7.380e+0
0.138, 1.600e-5, 1.526e-4, 7.390e+0
0.139, 1.569e-5, 1.528e-4, 7.400e+0
0.140, 1.546e-5, 1.529e-4, 7.410e+0
0.141, 1.513e-5, 1.531e-4, 7.420e+0
0.142, 1.489e-5, 1.532e-4, 7.430e+0
0.143, 1.455e-5, 1.534e-4, 7.440e+0
0.144, 1.428e-5, 1.535e-4, 7.450e+0
0.145, 1.393e-5, 1.537e-4, 7.460e+0
0.146, 1.366e-5, 1.538e-4, 7.470e+0
0.147, 1.328e-5, 1.539e-4, 7.480e+0
0.148, 1.298e-5, 1.540e-4, 7.490e+0
0.149, 1.259e-5, 1.542e-4, 7.500e+0
0.150, 1.229e-5, 1.543e-4, 7.510e+0
0.151, 1.187e-5, 1.544e-4, 7.520e+0
0.152, 1.155e-5, 1.545e-4, 7.530e+0
0.153, 1.112e-5, 1.546e-4, 7.540e+0
0.154, 1.080e-5, 1.548e-4, 7.550e+0
0.155, 1.034e-5, 1.549e-4, 7.560e+0
0.156, 9.979e-6, 1.550e-4, 7.570e+0
0.157, 9.499e-6, 1.551e-4, 7.580e+0
0.158, 9.102e-6, 1.551e-4, 7.590e+0
0.159, 8.608e-6, 1.552e-4, 7.600e+0
0.160, 8.213e-6, 1.553e-4, 7.610e+0
0.161, 7.681e-6, 1.554e-4, 7.620e+0
0.162, 7.276e-6, 1.555e-4, 7.630e+0
0.163, 6.727e-6, 1.555e-4, 7.640e+0
0.164, 6.293e-6, 1.556e-4, 7.650e+0
0.165, 5.714e-6, 1.556e-4, 7.660e+0
0.166, 5.247e-6, 1.557e-4, 7.670e+0
0.167, 4.647e-6, 1.557e-4, 7.680e+0
0.168, 4.167e-6, 1.558e-4, 7.690e+0
0.169, 3.537e-6, 1.558e-4, 7.700e+0
0.170, 3.045e-6, 1.559e-4, 7.710e+0
0.171, 2.401e-6, 1.559e-4, 7.720e+0
0.172, 1.884e-6, 1.559e-4, 7.730e+0
0.173, 1.190e-6, 1.559e-4, 7.740e+0
0.174, 6.381e-7, 1.559e-4, 7.750e+0
0.175, -4.890e-8, 1.559e-4, 7.760e+0
0.176, -6.058e-7, 1.559e-4, 7.770e+0
0.177, -1.322e-6, 1.559e-4, 7.780e+0
0.178, -1.906e-6, 1.559e-4, 7.790e+0
0.179, -2.657e-6, 1.558e-4, 7.800e+0
0.180, -3.250e-6, 1.558e-4, 7.810e+0
0.181, -4.025e-6, 1.558e-4, 7.820e+0
0.182, -4.644e-6, 1.557e-4, 7.830e+0
0.183, -5.435e-6, 1.557e-4, 7.840e+0
0.184, -6.092e-6, 1.556e-4, 7.850e+0
0.185, -6.912e-6, 1.555e-4, 7.860e+0
0.186, -7.560e-6, 1.555e-4, 7.870e+0
0.187, -8.422e-6, 1.554e-4, 7.880e+0
0.188, -9.087e-6, 1.553e-4, 7.890e+0
0.189, -9.925e-6, 1.552e-4, 7.900e+0
0.190, -1.064e-5, 1.551e-4, 7.910e+0
0.191, -1.150e-5, 1.550e-4, 7.920e+0
0.192, -1.220e-5, 1.549e-4, 7.930e+0
0.193, -1.309e-5, 1.547e-4, 7.940e+0
0.194, -1.380e-5, 1.546e-4, 7.950e+0
0.195, -1.472e-5, 1.544e-4, 7.960e+0
0.196, -1.544e-5, 1.543e-4, 7.970e+0
0.197, -1.633e-5, 1.541e-4, 7.980e+0
0.198, -1.707e-5, 1.539e-4, 7.990e+0
0.199, -1.799e-5, 1.538e-4, 8.000e+0
0.200, -1.873e-5, 1.536e-4, 8.010e+0
0.201, -1.966e-5, 1.534e-4, 8.020e+0
0.202, -2.039e-5, 1.532e-4, 8.030e+0
0.203, -2.131e-5, 1.530e-4, 8.040e+0
0.204, -2.204e-5, 1.527e-4, 8.050e+0
0.205, -2.306e-5, 1.525e-4, 8.060e+0
0.206, -2.380e-5, 1.523e-4, 8.070e+0
0.207, -2.468e-5, 1.520e-4, 8.080e+0
0.208, -2.539e-5, 1.518e-4, 8.090e+0
0.209, -2.629e-5, 1.515e-4, 8.100e+0
0.210, -2.699e-5, 1.512e-4, 8.110e+0
0.211, -2.789e-5, 1.510e-4, 8.120e+0
0.212, -2.860e-5, 1.507e-4, 8.130e+0
0.213, -2.947e-5, 1.504e-4, 8.140e+0
0.214, -3.015e-5, 1.501e-4, 8.150e+0
0.215, -3.100e-5, 1.498e-4, 8.160e+0
0.216, -3.164e-5, 1.495e-4, 8.170e+0
0.217, -3.247e-5, 1.491e-4, 8.180e+0
0.218, -3.310e-5, 1.488e-4, 8.190e+0
0.219, -3.390e-5, 1.485e-4, 8.200e+0
0.220, -3.450e-5, 1.481e-4, 8.210e+0
0.221, -3.530e-5, 1.478e-4, 8.220e+0
0.222, -3.588e-5, 1.474e-4, 8.230e+0
0.223, -3.661e-5, 1.470e-4, 8.240e+0
0.224, -3.716e-5, 1.467e-4, 8.250e+0
0.225, -3.788e-5, 1.463e-4, 8.260e+0
0.226, -3.835e-5, 1.459e-4, 8.270e+0
0.227, -3.905e-5, 1.455e-4, 8.280e+0
0.228, -3.953e-5, 1.451e-4, 8.290e+0
0.229, -4.017e-5, 1.447e-4, 8.300e+0
0.230, -4.060e-5, 1.443e-4, 8.310e+0
0.231, -4.114e-5, 1.439e-4, 8.320e+0
0.232, -4.152e-5, 1.435e-4, 8.330e+0
0.233, -4.209e-5, 1.431e-4, 8.340e+0
0.234, -4.245e-5, 1.426e-4, 8.350e+0
0.235, -4.295e-5, 1.422e-4, 8.360e+0
0.236, -4.325e-5, 1.418e-4, 8.370e+0
0.237, -4.372e-5, 1.413e-4, 8.380e+0
0.238, -4.398e-5, 1.409e-4, 8.390e+0
0.239, -4.439e-5, 1.405e-4, 8.400e+0
0.240, -4.461e-5, 1.400e-4, 8.410e+0
0.241, -4.497e-5, 1.396e-4, 8.420e+0
0.242, -4.512e-5, 1.391e-4, 8.430e+0
0.243, -4.546e-5, 1.387e-4, 8.440e+0
0.244, -4.562e-5, 1.382e-4, 8.450e+0
0.245, -4.591e-5, 1.377e-4, 8.460e+0
0.246, -4.596e-5, 1.373e-4, 8.470e+0
0.247, -4.619e-5, 1.368e-4, 8.480e+0
0.248, -4.624e-5, 1.364e-4, 8.490e+0
0.249, -4.643e-5, 1.359e-4, 8.500e+0
0.250, -4.644e-5, 1.354e-4, 8.510e+0
0.251, -4.661e-5, 1.350e-4, 8.520e+0
0.252, -4.656e-5, 1.345e-4, 8.530e+0
0.253, -4.667e-5, 1.340e-4, 8.540e+0
0.254, -4.660e-5, 1.336e-4, 8.550e+0
0.255, -4.666e-5, 1.331e-4, 8.560e+0
0.256, -4.652e-5, 1.326e-4, 8.570e+0
0.257, -4.654e-5, 1.322e-4, 8.580e+0
0.258, -4.643e-5, 1.317e-4, 8.590e+0
0.259, -4.645e-5, 1.312e-4, 8.600e+0
0.260, -4.628e-5, 1.308e-4, 8.610e+0
0.261, -4.624e-5, 1.303e-4, 8.620e+0
0.262, -4.605e-5, 1.299e-4, 8.630e+0
0.263, -4.601e-5, 1.294e-4, 8.640e+0
0.264, -4.578e-5, 1.289e-4, 8.650e+0
0.265, -4.569e-5, 1.285e-4, 8.660e+0
0.266, -4.545e-5, 1.280e-4, 8.670e+0
0.267, -4.535e-5, 1.276e-4, 8.680e+0
0.268, -4.508e-5, 1.271e-4, 8.690e+0
0.269, -4.496e-5, 1.267e-4, 8.700e+0
0.270, -4.469e-5, 1.262e-4, 8.710e+0
0.271, -4.453e-5, 1.258e-4, 8.720e+0
0.272, -4.424e-5, 1.253e-4, 8.730e+0
0.273, -4.407e-5, 1.249e-4, 8.740e+0
0.274, -4.376e-5, 1.245e-4, 8.750e+0
0.275, -4.359e-5, 1.240e-4, 8.760e+0
0.276, -4.326e-5, 1.236e-4, 8.770e+0
0.277, -4.306e-5, 1.232e-4, 8.780e+0
0.278, -4.274e-5, 1.227e-4, 8.790e+0
0.279, -4.253e-5, 1.223e-4, 8.800e+0
0.280, -4.220e-5, 1.219e-4, 8.810e+0
0.281, -4.198e-5, 1.215e-4, 8.820e+0
0.282, -4.163e-5, 1.210e-4, 8.830e+0
0.283, -4.139e-5, 1.206e-4, 8.840e+0
0.284, -4.106e-5, 1.202e-4, 8.850e+0
0.285, -4.082e-5, 1.198e-4, 8.860e+0
0.286, -4.048e-5, 1.194e-4, 8.870e+0
0.287, -4.024e-5, 1.190e-4, 8.880e+0
0.288, -3.989e-5, 1.186e-4, 8.890e+0
0.289, -3.966e-5, 1.182e-4, 8.900e+0
0.290, -3.930e-5, 1.178e-4, 8.910e+0
0.291, -3.906e-5, 1.174e-4, 8.920e+0
0.292, -3.873e-5, 1.170e-4, 8.930e+0
0.293, -3.847e-5, 1.167e-4, 8.940e+0
0.294, -3.813e-5, 1.163e-4, 8.950e+0
0.295, -3.787e-5, 1.159e-4, 8.960e+0
0.296, -3.753e-5, 1.155e-4, 8.970e+0
0.297, -3.728e-5, 1.151e-4, 8.980e+0
0.298, -3.695e-5, 1.148e-4, 8.990e+0
0.299, -3.670e-5, 1.144e-4, 9.000e+0
0.300, -3.637e-5, 1.140e-4, 9.010e+0
0.301, -3.612e-5, 1.137e-4, 9.020e+0
0.302, -3.580e-5, 1.133e-4, 9.030e+0
0.303, -3.555e-5, 1.130e-4, 9.040e+0
0.304, -3.523e-5, 1.126e-4, 9.050e+0
0.305, -3.498e-5, 1.123e-4, 9.060e+0
0.306, -3.467e-5, 1.119e-4, 9.070e+0
0.307, -3.443e-5, 1.116e-4, 9.080e+0
0.308, -3.412e-5, 1.112e-4, 9.090e+0
0.309, -3.388e-5, 1.109e-4, 9.100e+0
0.310, -3.358e-5, 1.106e-4, 9.110e+0
0.311, -3.334e-5, 1.102e-4, 9.120e+0
0.312, -3.304e-5, 1.099e-4, 9.130e+0
0.313, -3.282e-5, 1.096e-4, 9.140e+0
0.314, -3.252e-5, 1.092e-4, 9.150e+0
0.315, -3.230e-5, 1.089e-4, 9.160e+0
0.316, -3.201e-5, 1.086e-4, 9.170e+0
0.317, -3.179e-5, 1.083e-4, 9.180e+0
0.318, -3.151e-5, 1.080e-4, 9.190e+0
0.319, -3.129e-5, 1.077e-4, 9.200e+0
0.320, -3.102e-5, 1.073e-4, 9.210e+0
0.321, -3.081e-5, 1.070e-4, 9.220e+0
0.322, -3.055e-5, 1.067e-4, 9.230e+0
0.323, -3.034e-5, 1.064e-4, 9.240e+0
0.324, -3.007e-5, 1.061e-4, 9.250e+0
0.325, -2.988e-5, 1.058e-4, 9.260e+0
0.326, -2.962e-5, 1.055e-4, 9.270e+0
0.327, -2.943e-5, 1.052e-4, 9.280e+0
0.328, -2.917e-5, 1.049e-4, 9.290e+0
0.329, -2.899e-5, 1.047e-4, 9.300e+0
0.330, -2.874e-5, 1.044e-4, 9.310e+0
0.331, -2.855e-5, 1.041e-4, 9.320e+0
0.332, -2.832e-5, 1.038e-4, 9.330e+0
0.333, -2.813e-5, 1.035e-4, 9.340e+0
0.334, -2.790e-5, 1.032e-4, 9.350e+0
0.335, -2.773e-5, 1.030e-4, 9.360e+0
0.336, -2.750e-5, 1.027e-4, 9.370e+0
0.337, -2.733e-5, 1.024e-4, 9.380e+0
0.338, -2.711e-5, 1.021e-4, 9.390e+0
0.339, -2.695e-5, 1.019e-4, 9.400e+0
0.340, -2.673e-5, 1.016e-4, 9.410e+0
0.341, -2.657e-5, 1.013e-4, 9.420e+0
0.342, -2.636e-5, 1.011e-4, 9.430e+0
0.343, -2.620e-5, 1.008e-4, 9.440e+0
0.344, -2.600e-5, 1.006e-4, 9.450e+0
0.345, -2.585e-5, 1.003e-4, 9.460e+0
0.346, -2.565e-5, 1.000e-4, 9.470e+0
0.347, -2.549e-5, 9.979e-5, 9.480e+0
0.348, -2.530e-5, 9.953e-5, 9.490e+0
0.349, -2.515e-5, 9.928e-5, 9.500e+0
0.350, -2.497e-5, 9.903e-5, 9.510e+0
0.351, -2.482e-5, 9.878e-5, 9.520e+0
0.352, -2.464e-5, 9.854e-5, 9.530e+0
0.353, -2.450e-5, 9.829e-5, 9.540e+0
0.354, -2.432e-5, 9.805e-5, 9.550e+0
0.355, -2.419e-5, 9.781e-5, 9.560e+0
0.356, -2.402e-5, 9.757e-5, 9.570e+0
0.357, -2.388e-5, 9.733e-5, 9.580e+0
0.358, -2.371e-5, 9.709e-5, 9.590e+0
0.359, -2.358e-5, 9.685e-5, 9.600e+0
0.360, -2.341e-5, 9.662e-5, 9.610e+0
0.361, -2.330e-5, 9.639e-5, 9.620e+0
0.362, -2.313e-5, 9.616e-5, 9.630e+0
0.363, -2.301e-5, 9.593e-5, 9.640e+0
0.364, -2.285e-5, 9.570e-5, 9.650e+0
0.365, -2.274e-5, 9.547e-5, 9.660e+0
0.366, -2.258e-5, 9.524e-5, 9.670e+0
0.367, -2.247e-5, 9.502e-5, 9.680e+0
0.368, -2.231e-5, 9.480e-5, 9.690e+0
0.369, -2.221e-5, 9.457e-5, 9.700e+0
0.370, -2.206e-5, 9.435e-5, 9.710e+0
0.371, -2.195e-5, 9.413e-5, 9.720e+0
0.372, -2.181e-5, 9.392e-5, 9.730e+0
0.373, -2.170e-5, 9.370e-5, 9.740e+0
0.374, -2.156e-5, 9.348e-5, 9.750e+0
0.375, -2.146e-5, 9.327e-5, 9.760e+0
0.376, -2.132e-5, 9.306e-5, 9.770e+0
0.377, -2.122e-5, 9.284e-5, 9.780e+0
0.378, -2.108e-5, 9.263e-5, 9.790e+0
0.379, -2.099e-5, 9.242e-5, 9.800e+0
0.380, -2.086e-5, 9.221e-5, 9.810e+0
0.381, -2.077e-5, 9.201e-5, 9.820e+0
0.382, -2.063e-5, 9.180e-5, 9.830e+0
0.383, -2.054e-5, 9.159e-5, 9.840e+0
0.384, -2.041e-5, 9.139e-5, 9.850e+0
0.385, -2.033e-5, 9.119e-5, 9.860e+0
0.386, -2.020e-5, 9.099e-5, 9.870e+0
0.387, -2.012e-5, 9.078e-5, 9.880e+0
0.388, -2.000e-5, 9.058e-5, 9.890e+0
0.389, -1.991e-5, 9.039e-5, 9.900e+0
0.390, -1.979e-5, 9.019e-5, 9.910e+0
0.391, -1.971e-5, 8.999e-5, 9.920e+0
0.392, -1.959e-5, 8.979e-5, 9.930e+0
0.393, -1.951e-5, 8.960e-5, 9.940e+0
0.394, -1.940e-5, 8.941e-5, 9.950e+0
0.395, -1.932e-5, 8.921e-5, 9.960e+0
0.396, -1.921e-5, 8.902e-5, 9.970e+0
0.397, -1.914e-5, 8.883e-5, 9.980e+0
0.398, -1.902e-5, 8.864e-5, 9.990e+0
0.399, -1.895e-5, 8.845e-5, 1.000e+1
0.400, -1.884e-5, 8.826e-5, 1.001e+1
0.401, -1.877e-5, 8.807e-5, 1.002e+1
0.402, -1.866e-5, 8.789e-5, 1.003e+1
0.403, -1.860e-5, 8.770e-5, 1.004e+1
0.404, -1.849e-5, 8.751e-5, 1.005e+1
0.405, -1.843e-5, 8.733e-5, 1.006e+1
0.406, -1.832e-5, 8.715e-5, 1.007e+1
0.407, -1.826e-5, 8.696e-5, 1.008e+1
0.408, -1.815e-5, 8.678e-5, 1.009e+1
0.409, -1.809e-5, 8.660e-5, 1.010e+1
0.410, -1.797e-5, 8.642e-5, 1.011e+1
0.411, -1.792e-5, 8.624e-5, 1.012e+1
0.412, -1.783e-5, 8.607e-5, 1.013e+1
0.413, -1.777e-5, 8.589e-5, 1.014e+1
0.414, -1.767e-5, 8.571e-5, 1.015e+1
0.415, -1.761e-5, 8.553e-5, 1.016e+1
0.416, -1.752e-5, 8.536e-5, 1.017e+1
0.417, -1.746e-5, 8.519e-5, 1.018e+1
0.418, -1.737e-5, 8.501e-5, 1.019e+1
0.419, -1.731e-5, 8.484e-5, 1.020e+1
0.420, -1.722e-5, 8.467e-5, 1.021e+1
0.421, -1.717e-5, 8.449e-5, 1.022e+1
0.422, -1.707e-5, 8.432e-5, 1.023e+1
0.423, -1.703e-5, 8.415e-5, 1.024e+1
0.424, -1.693e-5, 8.398e-5, 1.025e+1
0.425, -1.688e-5, 8.382e-5, 1.026e+1
0.426, -1.679e-5, 8.365e-5, 1.027e+1
0.427, -1.675e-5, 8.348e-5, 1.028e+1
0.428, -1.666e-5, 8.331e-5, 1.029e+1
0.429, -1.661e-5, 8.315e-5, 1.030e+1
0.430, -1.652e-5, 8.298e-5, 1.031e+1
0.431, -1.648e-5, 8.282e-5, 1.032e+1
0.432, -1.639e-5, 8.265e-5, 1.033e+1
0.433, -1.635e-5, 8.249e-5, 1.034e+1
0.434, -1.626e-5, 8.233e-5, 1.035e+1
0.435, -1.622e-5, 8.216e-5, 1.036e+1
0.436, -1.614e-5, 8.200e-5, 1.037e+1
0.437, -1.609e-5, 8.184e-5, 1.038e+1
0.438, -1.601e-5, 8.168e-5, 1.039e+1
0.439, -1.597e-5, 8.152e-5, 1.040e+1
0.440, -1.589e-5, 8.136e-5, 1.041e+1
0.441, -1.585e-5, 8.121e-5, 1.042e+1
0.442, -1.577e-5, 8.105e-5, 1.043e+1
0.443, -1.573e-5, 8.089e-5, 1.044e+1
0.444, -1.565e-5, 8.073e-5, 1.045e+1
0.445, -1.562e-5, 8.058e-5, 1.046e+1
0.446, -1.554e-5, 8.042e-5, 1.047e+1
0.447, -1.550e-5, 8.027e-5, 1.048e+1
0.448, -1.542e-5, 8.011e-5, 1.049e+1
0.449, -1.539e-5, 7.996e-5, 1.050e+1
0.450, -1.531e-5, 7.981e-5, 1.051e+1
0.451, -1.528e-5, 7.965e-5, 1.052e+1
0.452, -1.520e-5, 7.950e-5, 1.053e+1
0.453, -1.517e-5, 7.935e-5, 1.054e+1
0.454, -1.509e-5, 7.920e-5, 1.055e+1
0.455, -1.506e-5, 7.905e-5, 1.056e+1
0.456, -1.499e-5, 7.890e-5, 1.057e+1
0.457, -1.496e-5, 7.875e-5, 1.058e+1
0.458, -1.488e-5, 7.860e-5, 1.059e+1
0.459, -1.485e-5, 7.845e-5, 1.060e+1
0.460, -1.478e-5, 7.830e-5, 1.061e+1
0.461, -1.474e-5, 7.816e-5, 1.062e+1
0.462, -1.468e-5, 7.801e-5, 1.063e+1
0.463, -1.465e-5, 7.786e-5, 1.064e+1
0.464, -1.458e-5, 7.772e-5, 1.065e+1
0.465, -1.455e-5, 7.757e-5, 1.066e+1
0.466, -1.448e-5, 7.743e-5, 1.067e+1
0.467, -1.445e-5, 7.728e-5, 1.068e+1
0.468, -1.439e-5, 7.714e-5, 1.069e+1
0.469, -1.436e-5, 7.699e-5, 1.070e+1
0.470, -1.429e-5, 7.685e-5, 1.071e+1
0.471, -1.427e-5, 7.671e-5, 1.072e+1
0.472, -1.420e-5, 7.657e-5, 1.073e+1
0.473, -1.417e-5, 7.643e-5, 1.074e+1
0.474, -1.411e-5, 7.628e-5, 1.075e+1
0.475, -1.408e-5, 7.614e-5, 1.076e+1
0.476, -1.402e-5, 7.600e-5, 1.077e+1
0.477, -1.399e-5, 7.586e-5, 1.078e+1
0.478, -1.393e-5, 7.572e-5, 1.079e+1
0.479, -1.390e-5, 7.559e-5, 1.080e+1
0.480, -1.384e-5, 7.545e-5, 1.081e+1
0.481, -1.382e-5, 7.531e-5, 1.082e+1
0.482, -1.376e-5, 7.517e-5, 1.083e+1
0.483, -1.374e-5, 7.503e-5, 1.084e+1
0.484, -1.367e-5, 7.490e-5, 1.085e+1
0.485, -1.365e-5, 7.476e-5, 1.086e+1
0.486, -1.359e-5, 7.462e-5, 1.087e+1
0.487, -1.357e-5, 7.449e-5, 1.088e+1
0.488, -1.351e-5, 7.435e-5, 1.089e+1
0.489, -1.349e-5, 7.422e-5, 1.090e+1
0.490, -1.343e-5, 7.408e-5, 1.091e+1
0.491, -1.341e-5, 7.395e-5, 1.092e+1
0.492, -1.335e-5, 7.382e-5, 1.093e+1
0.493, -1.333e-5, 7.368e-5, 1.094e+1
0.494, -1.327e-5, 7.355e-5, 1.095e+1
0.495, -1.325e-5, 7.342e-5, 1.096e+1
0.496, -1.320e-5, 7.329e-5, 1.097e+1
0.497, -1.318e-5, 7.315e-5, 1.098e+1
0.498, -1.312e-5, 7.302e-5, 1.099e+1
0.499, -1.310e-5, 7.289e-5, 1.100e+1
0.500, -1.305e-5, 7.276e-5, 1.101e+1
0.501, -1.303e-5, 7.263e-5, 1.102e+1
0.502, -1.298e-5, 7.250e-5, 1.103e+1
0.503, -1.296e-5, 7.237e-5, 1.104e+1
0.504, -1.290e-5, 7.224e-5, 1.105e+1
0.505, -1.289e-5, 7.211e-5, 1.106e+1
0.506, -1.284e-5, 7.199e-5, 1.107e+1
0.507, -1.282e-5, 7.186e-5, 1.108e+1
0.508, -1.277e-5, 7.173e-5, 1.109e+1
0.509, -1.275e-5, 7.160e-5, 1.110e+1
0.510, -1.270e-5, 7.148e-5, 1.111e+1
0.511, -1.268e-5, 7.135e-5, 1.112e+1
0.512, -1.263e-5, 7.122e-5, 1.113e+1
0.513, -1.262e-5, 7.110e-5, 1.114e+1
0.514, -1.257e-5, 7.097e-5, 1.115e+1
0.515, -1.255e-5, 7.084e-5, 1.116e+1
0.516, -1.250e-5, 7.072e-5, 1.117e+1
0.517, -1.249e-5, 7.060e-5, 1.118e+1
0.518, -1.244e-5, 7.047e-5, 1.119e+1
0.519, -1.243e-5, 7.035e-5, 1.120e+1
0.520, -1.238e-5, 7.022e-5, 1.121e+1
0.521, -1.236e-5, 7.010e-5, 1.122e+1
0.522, -1.232e-5, 6.998e-5, 1.123e+1
0.523, -1.231e-5, 6.985e-5, 1.124e+1
0.524, -1.226e-5, 6.973e-5, 1.125e+1
0.525, -1.225e-5, 6.961e-5, 1.126e+1
0.526, -1.220e-5, 6.949e-5, 1.127e+1
0.527, -1.219e-5, 6.936e-5, 1.128e+1
0.528, -1.214e-5, 6.924e-5, 1.129e+1
0.529, -1.213e-5, 6.912e-5, 1.130e+1
0.530, -1.208e-5, 6.900e-5, 1.131e+1
0.531, -1.207e-5, 6.888e-5, 1.132e+1
0.532, -1.203e-5, 6.876e-5, 1.133e+1
0.533, -1.202e-5, 6.864e-5, 1.134e+1
0.534, -1.197e-5, 6.852e-5, 1.135e+1
0.535, -1.197e-5, 6.840e-5, 1.136e+1
0.536, -1.192e-5, 6.828e-5, 1.137e+1
0.537, -1.191e-5, 6.816e-5, 1.138e+1
0.538, -1.186e-5, 6.804e-5, 1.139e+1
0.539, -1.186e-5, 6.792e-5, 1.140e+1
0.540, -1.181e-5, 6.781e-5, 1.141e+1
0.541, -1.181e-5, 6.769e-5, 1.142e+1
0.542, -1.176e-5, 6.757e-5, 1.143e+1
0.543, -1.175e-5, 6.745e-5, 1.144e+1
0.544, -1.171e-5, 6.734e-5, 1.145e+1
0.545, -1.171e-5, 6.722e-5, 1.146e+1
0.546, -1.166e-5, 6.710e-5, 1.147e+1
0.547, -1.166e-5, 6.699e-5, 1.148e+1
0.548, -1.162e-5, 6.687e-5, 1.149e+1
0.549, -1.161e-5, 6.675e-5, 1.150e+1
0.550, -1.157e-5, 6.664e-5, 1.151e+1
0.551, -1.157e-5, 6.652e-5, 1.152e+1
0.552, -1.152e-5, 6.641e-5, 1.153e+1
0.553, -1.152e-5, 6.629e-5, 1.154e+1
0.554, -1.148e-5, 6.618e-5, 1.155e+1
0.555, -1.148e-5, 6.606e-5, 1.156e+1
0.556, -1.143e-5, 6.595e-5, 1.157e+1
0.557, -1.143e-5, 6.583e-5, 1.158e+1
0.558, -1.139e-5, 6.572e-5, 1.159e+1
0.559, -1.139e-5, 6.561e-5, 1.160e+1
0.560, -1.135e-5, 6.549e-5, 1.161e+1
0.561, -1.135e-5, 6.538e-5, 1.162e+1
0.562, -1.131e-5, 6.527e-5, 1.163e+1
0.563, -1.130e-5, 6.515e-5, 1.164e+1
0.564, -1.127e-5, 6.504e-5, 1.165e+1
0.565, -1.126e-5, 6.493e-5, 1.166e+1
0.566, -1.122e-5, 6.482e-5, 1.167e+1
0.567, -1.122e-5, 6.470e-5, 1.168e+1
0.568, -1.119e-5, 6.459e-5, 1.169e+1
0.569, -1.119e-5, 6.448e-5, 1.170e+1
0.570, -1.115e-5, 6.437e-5, 1.171e+1
0.571, -1.115e-5, 6.426e-5, 1.172e+1
0.572, -1.111e-5, 6.415e-5, 1.173e+1
0.573, -1.111e-5, 6.403e-5, 1.174e+1
0.574, -1.108e-5, 6.392e-5, 1.175e+1
0.575, -1.108e-5, 6.381e-5, 1.176e+1
0.576, -1.104e-5, 6.370e-5, 1.177e+1
0.577, -1.104e-5, 6.359e-5, 1.178e+1
0.578, -1.101e-5, 6.348e-5, 1.179e+1
0.579, -1.101e-5, 6.337e-5, 1.180e+1
0.580, -1.098e-5, 6.326e-5, 1.181e+1
0.581, -1.098e-5, 6.315e-5, 1.182e+1
0.582, -1.094e-5, 6.304e-5, 1.183e+1
0.583, -1.094e-5, 6.293e-5, 1.184e+1
0.584, -1.091e-5, 6.282e-5, 1.185e+1
0.585, -1.091e-5, 6.271e-5, 1.186e+1
0.586, -1.088e-5, 6.261e-5, 1.187e+1
0.587, -1.088e-5, 6.250e-5, 1.188e+1
0.588, -1.085e-5, 6.239e-5, 1.189e+1
0.589, -1.085e-5, 6.228e-5, 1.190e+1
0.590, -1.082e-5, 6.217e-5, 1.191e+1
0.591, -1.082e-5, 6.206e-5, 1.192e+1
0.592, -1.079e-5, 6.196e-5, 1.193e+1
0.593, -1.080e-5, 6.185e-5, 1.194e+1
0.594, -1.076e-5, 6.174e-5, 1.195e+1
0.595, -1.077e-5, 6.163e-5, 1.196e+1
0.596, -1.074e-5, 6.153e-5, 1.197e+1
0.597, -1.074e-5, 6.142e-5, 1.198e+1
0.598, -1.071e-5, 6.131e-5, 1.199e+1
0.599, -1.072e-5, 6.120e-5, 1.200e+1
