May 18, 2026   15:57:51
Cyclic Voltammetry
File: 10mv_s.bin
Data Source:  Experiment
Instrument Model:  CHI660D
Header: 
Note: 

Init E (V) = 0.6
High E (V) = 0.6
Low E (V) = 0
Init P/N = N
Scan Rate (V/s) = 0.01
Segment = 2
Sample Interval (V) = 0.001
Quiet Time (sec) = 2
Sensitivity (A/V) = 1e-5

Segment 1:
Ep = 0.182V
Eh = 0.242V
ip = 2.160e-5A
Ah = 1.404e-4C

Segment 2:
Ep = 0.251V
Eh = 0.192V
ip = -1.894e-5A
Ah = -1.199e-4C

Potential/V, Current/A, Charge/C, Time/s

Segment 1:
0.600, -4.096e-6, -4.096e-7, 1.000e-1
0.599, -3.979e-6, -8.075e-7, 2.000e-1
0.598, -3.883e-6, -1.196e-6, 3.000e-1
0.597, -3.798e-6, -1.576e-6, 4.000e-1
0.596, -3.718e-6, -1.947e-6, 5.000e-1
0.595, -3.642e-6, -2.312e-6, 6.000e-1
0.594, -3.571e-6, -2.669e-6, 7.000e-1
0.593, -3.504e-6, -3.019e-6, 8.000e-1
0.592, -3.441e-6, -3.363e-6, 9.000e-1
0.591, -3.380e-6, -3.701e-6, 1.000e+0
0.590, -3.322e-6, -4.033e-6, 1.100e+0
0.589, -3.267e-6, -4.360e-6, 1.200e+0
0.588, -3.214e-6, -4.682e-6, 1.300e+0
0.587, -3.164e-6, -4.998e-6, 1.400e+0
0.586, -3.116e-6, -5.310e-6, 1.500e+0
0.585, -3.069e-6, -5.616e-6, 1.600e+0
0.584, -3.025e-6, -5.919e-6, 1.700e+0
0.583, -2.982e-6, -6.217e-6, 1.800e+0
0.582, -2.941e-6, -6.511e-6, 1.900e+0
0.581, -2.902e-6, -6.801e-6, 2.000e+0
0.580, -2.863e-6, -7.088e-6, 2.100e+0
0.579, -2.826e-6, -7.370e-6, 2.200e+0
0.578, -2.791e-6, -7.650e-6, 2.300e+0
0.577, -2.756e-6, -7.925e-6, 2.400e+0
0.576, -2.723e-6, -8.197e-6, 2.500e+0
0.575, -2.691e-6, -8.467e-6, 2.600e+0
0.574, -2.660e-6, -8.733e-6, 2.700e+0
0.573, -2.630e-6, -8.996e-6, 2.800e+0
0.572, -2.600e-6, -9.256e-6, 2.900e+0
0.571, -2.571e-6, -9.513e-6, 3.000e+0
0.570, -2.544e-6, -9.767e-6, 3.100e+0
0.569, -2.517e-6, -1.002e-5, 3.200e+0
0.568, -2.491e-6, -1.027e-5, 3.300e+0
0.567, -2.465e-6, -1.051e-5, 3.400e+0
0.566, -2.441e-6, -1.076e-5, 3.500e+0
0.565, -2.416e-6, -1.100e-5, 3.600e+0
0.564, -2.393e-6, -1.124e-5, 3.700e+0
0.563, -2.371e-6, -1.148e-5, 3.800e+0
0.562, -2.348e-6, -1.171e-5, 3.900e+0
0.561, -2.326e-6, -1.194e-5, 4.000e+0
0.560, -2.305e-6, -1.217e-5, 4.100e+0
0.559, -2.284e-6, -1.240e-5, 4.200e+0
0.558, -2.264e-6, -1.263e-5, 4.300e+0
0.557, -2.244e-6, -1.285e-5, 4.400e+0
0.556, -2.224e-6, -1.308e-5, 4.500e+0
0.555, -2.206e-6, -1.330e-5, 4.600e+0
0.554, -2.187e-6, -1.352e-5, 4.700e+0
0.553, -2.169e-6, -1.373e-5, 4.800e+0
0.552, -2.152e-6, -1.395e-5, 4.900e+0
0.551, -2.134e-6, -1.416e-5, 5.000e+0
0.550, -2.117e-6, -1.437e-5, 5.100e+0
0.549, -2.101e-6, -1.458e-5, 5.200e+0
0.548, -2.085e-6, -1.479e-5, 5.300e+0
0.547, -2.069e-6, -1.500e-5, 5.400e+0
0.546, -2.053e-6, -1.520e-5, 5.500e+0
0.545, -2.038e-6, -1.541e-5, 5.600e+0
0.544, -2.022e-6, -1.561e-5, 5.700e+0
0.543, -2.008e-6, -1.581e-5, 5.800e+0
0.542, -1.994e-6, -1.601e-5, 5.900e+0
0.541, -1.979e-6, -1.621e-5, 6.000e+0
0.540, -1.965e-6, -1.640e-5, 6.100e+0
0.539, -1.952e-6, -1.660e-5, 6.200e+0
0.538, -1.939e-6, -1.679e-5, 6.300e+0
0.537, -1.925e-6, -1.699e-5, 6.400e+0
0.536, -1.912e-6, -1.718e-5, 6.500e+0
0.535, -1.899e-6, -1.737e-5, 6.600e+0
0.534, -1.887e-6, -1.756e-5, 6.700e+0
0.533, -1.875e-6, -1.774e-5, 6.800e+0
0.532, -1.863e-6, -1.793e-5, 6.900e+0
0.531, -1.851e-6, -1.811e-5, 7.000e+0
0.530, -1.839e-6, -1.830e-5, 7.100e+0
0.529, -1.827e-6, -1.848e-5, 7.200e+0
0.528, -1.816e-6, -1.866e-5, 7.300e+0
0.527, -1.805e-6, -1.884e-5, 7.400e+0
0.526, -1.794e-6, -1.902e-5, 7.500e+0
0.525, -1.783e-6, -1.920e-5, 7.600e+0
0.524, -1.773e-6, -1.938e-5, 7.700e+0
0.523, -1.762e-6, -1.955e-5, 7.800e+0
0.522, -1.752e-6, -1.973e-5, 7.900e+0
0.521, -1.742e-6, -1.990e-5, 8.000e+0
0.520, -1.732e-6, -2.008e-5, 8.100e+0
0.519, -1.722e-6, -2.025e-5, 8.200e+0
0.518, -1.712e-6, -2.042e-5, 8.300e+0
0.517, -1.703e-6, -2.059e-5, 8.400e+0
0.516, -1.693e-6, -2.076e-5, 8.500e+0
0.515, -1.684e-6, -2.093e-5, 8.600e+0
0.514, -1.675e-6, -2.110e-5, 8.700e+0
0.513, -1.666e-6, -2.126e-5, 8.800e+0
0.512, -1.657e-6, -2.143e-5, 8.900e+0
0.511, -1.648e-6, -2.159e-5, 9.000e+0
0.510, -1.639e-6, -2.176e-5, 9.100e+0
0.509, -1.631e-6, -2.192e-5, 9.200e+0
0.508, -1.623e-6, -2.208e-5, 9.300e+0
0.507, -1.614e-6, -2.224e-5, 9.400e+0
0.506, -1.606e-6, -2.240e-5, 9.500e+0
0.505, -1.597e-6, -2.256e-5, 9.600e+0
0.504, -1.589e-6, -2.272e-5, 9.700e+0
0.503, -1.581e-6, -2.288e-5, 9.800e+0
0.502, -1.574e-6, -2.304e-5, 9.900e+0
0.501, -1.566e-6, -2.319e-5, 1.000e+1
0.500, -1.558e-6, -2.335e-5, 1.010e+1
0.499, -1.551e-6, -2.351e-5, 1.020e+1
0.498, -1.543e-6, -2.366e-5, 1.030e+1
0.497, -1.535e-6, -2.381e-5, 1.040e+1
0.496, -1.529e-6, -2.397e-5, 1.050e+1
0.495, -1.521e-6, -2.412e-5, 1.060e+1
0.494, -1.514e-6, -2.427e-5, 1.070e+1
0.493, -1.506e-6, -2.442e-5, 1.080e+1
0.492, -1.500e-6, -2.457e-5, 1.090e+1
0.491, -1.493e-6, -2.472e-5, 1.100e+1
0.490, -1.486e-6, -2.487e-5, 1.110e+1
0.489, -1.480e-6, -2.502e-5, 1.120e+1
0.488, -1.473e-6, -2.516e-5, 1.130e+1
0.487, -1.466e-6, -2.531e-5, 1.140e+1
0.486, -1.460e-6, -2.546e-5, 1.150e+1
0.485, -1.454e-6, -2.560e-5, 1.160e+1
0.484, -1.447e-6, -2.575e-5, 1.170e+1
0.483, -1.440e-6, -2.589e-5, 1.180e+1
0.482, -1.434e-6, -2.603e-5, 1.190e+1
0.481, -1.428e-6, -2.618e-5, 1.200e+1
0.480, -1.422e-6, -2.632e-5, 1.210e+1
0.479, -1.415e-6, -2.646e-5, 1.220e+1
0.478, -1.410e-6, -2.660e-5, 1.230e+1
0.477, -1.404e-6, -2.674e-5, 1.240e+1
0.476, -1.398e-6, -2.688e-5, 1.250e+1
0.475, -1.392e-6, -2.702e-5, 1.260e+1
0.474, -1.386e-6, -2.716e-5, 1.270e+1
0.473, -1.380e-6, -2.730e-5, 1.280e+1
0.472, -1.374e-6, -2.743e-5, 1.290e+1
0.471, -1.369e-6, -2.757e-5, 1.300e+1
0.470, -1.363e-6, -2.771e-5, 1.310e+1
0.469, -1.358e-6, -2.784e-5, 1.320e+1
0.468, -1.352e-6, -2.798e-5, 1.330e+1
0.467, -1.347e-6, -2.811e-5, 1.340e+1
0.466, -1.341e-6, -2.825e-5, 1.350e+1
0.465, -1.336e-6, -2.838e-5, 1.360e+1
0.464, -1.331e-6, -2.851e-5, 1.370e+1
0.463, -1.326e-6, -2.865e-5, 1.380e+1
0.462, -1.320e-6, -2.878e-5, 1.390e+1
0.461, -1.315e-6, -2.891e-5, 1.400e+1
0.460, -1.310e-6, -2.904e-5, 1.410e+1
0.459, -1.305e-6, -2.917e-5, 1.420e+1
0.458, -1.299e-6, -2.930e-5, 1.430e+1
0.457, -1.294e-6, -2.943e-5, 1.440e+1
0.456, -1.289e-6, -2.956e-5, 1.450e+1
0.455, -1.284e-6, -2.969e-5, 1.460e+1
0.454, -1.279e-6, -2.982e-5, 1.470e+1
0.453, -1.274e-6, -2.994e-5, 1.480e+1
0.452, -1.269e-6, -3.007e-5, 1.490e+1
0.451, -1.264e-6, -3.020e-5, 1.500e+1
0.450, -1.260e-6, -3.032e-5, 1.510e+1
0.449, -1.255e-6, -3.045e-5, 1.520e+1
0.448, -1.250e-6, -3.057e-5, 1.530e+1
0.447, -1.244e-6, -3.070e-5, 1.540e+1
0.446, -1.240e-6, -3.082e-5, 1.550e+1
0.445, -1.236e-6, -3.095e-5, 1.560e+1
0.444, -1.230e-6, -3.107e-5, 1.570e+1
0.443, -1.226e-6, -3.119e-5, 1.580e+1
0.442, -1.221e-6, -3.131e-5, 1.590e+1
0.441, -1.217e-6, -3.143e-5, 1.600e+1
0.440, -1.212e-6, -3.156e-5, 1.610e+1
0.439, -1.207e-6, -3.168e-5, 1.620e+1
0.438, -1.203e-6, -3.180e-5, 1.630e+1
0.437, -1.198e-6, -3.192e-5, 1.640e+1
0.436, -1.193e-6, -3.204e-5, 1.650e+1
0.435, -1.189e-6, -3.215e-5, 1.660e+1
0.434, -1.185e-6, -3.227e-5, 1.670e+1
0.433, -1.180e-6, -3.239e-5, 1.680e+1
0.432, -1.175e-6, -3.251e-5, 1.690e+1
0.431, -1.171e-6, -3.263e-5, 1.700e+1
0.430, -1.166e-6, -3.274e-5, 1.710e+1
0.429, -1.162e-6, -3.286e-5, 1.720e+1
0.428, -1.157e-6, -3.297e-5, 1.730e+1
0.427, -1.153e-6, -3.309e-5, 1.740e+1
0.426, -1.148e-6, -3.320e-5, 1.750e+1
0.425, -1.144e-6, -3.332e-5, 1.760e+1
0.424, -1.140e-6, -3.343e-5, 1.770e+1
0.423, -1.135e-6, -3.355e-5, 1.780e+1
0.422, -1.130e-6, -3.366e-5, 1.790e+1
0.421, -1.126e-6, -3.377e-5, 1.800e+1
0.420, -1.121e-6, -3.388e-5, 1.810e+1
0.419, -1.117e-6, -3.400e-5, 1.820e+1
0.418, -1.113e-6, -3.411e-5, 1.830e+1
0.417, -1.108e-6, -3.422e-5, 1.840e+1
0.416, -1.104e-6, -3.433e-5, 1.850e+1
0.415, -1.099e-6, -3.444e-5, 1.860e+1
0.414, -1.094e-6, -3.455e-5, 1.870e+1
0.413, -1.090e-6, -3.466e-5, 1.880e+1
0.412, -1.086e-6, -3.477e-5, 1.890e+1
0.411, -1.081e-6, -3.487e-5, 1.900e+1
0.410, -1.078e-6, -3.498e-5, 1.910e+1
0.409, -1.074e-6, -3.509e-5, 1.920e+1
0.408, -1.068e-6, -3.520e-5, 1.930e+1
0.407, -1.063e-6, -3.530e-5, 1.940e+1
0.406, -1.058e-6, -3.541e-5, 1.950e+1
0.405, -1.053e-6, -3.551e-5, 1.960e+1
0.404, -1.048e-6, -3.562e-5, 1.970e+1
0.403, -1.044e-6, -3.572e-5, 1.980e+1
0.402, -1.039e-6, -3.583e-5, 1.990e+1
0.401, -1.034e-6, -3.593e-5, 2.000e+1
0.400, -1.029e-6, -3.603e-5, 2.010e+1
0.399, -1.024e-6, -3.613e-5, 2.020e+1
0.398, -1.019e-6, -3.624e-5, 2.030e+1
0.397, -1.014e-6, -3.634e-5, 2.040e+1
0.396, -1.009e-6, -3.644e-5, 2.050e+1
0.395, -1.004e-6, -3.654e-5, 2.060e+1
0.394, -9.983e-7, -3.664e-5, 2.070e+1
0.393, -9.934e-7, -3.674e-5, 2.080e+1
0.392, -9.880e-7, -3.684e-5, 2.090e+1
0.391, -9.830e-7, -3.694e-5, 2.100e+1
0.390, -9.773e-7, -3.703e-5, 2.110e+1
0.389, -9.721e-7, -3.713e-5, 2.120e+1
0.388, -9.667e-7, -3.723e-5, 2.130e+1
0.387, -9.610e-7, -3.732e-5, 2.140e+1
0.386, -9.552e-7, -3.742e-5, 2.150e+1
0.385, -9.490e-7, -3.751e-5, 2.160e+1
0.384, -9.440e-7, -3.761e-5, 2.170e+1
0.383, -9.375e-7, -3.770e-5, 2.180e+1
0.382, -9.316e-7, -3.779e-5, 2.190e+1
0.381, -9.254e-7, -3.789e-5, 2.200e+1
0.380, -9.189e-7, -3.798e-5, 2.210e+1
0.379, -9.127e-7, -3.807e-5, 2.220e+1
0.378, -9.058e-7, -3.816e-5, 2.230e+1
0.377, -8.991e-7, -3.825e-5, 2.240e+1
0.376, -8.928e-7, -3.834e-5, 2.250e+1
0.375, -8.857e-7, -3.843e-5, 2.260e+1
0.374, -8.788e-7, -3.852e-5, 2.270e+1
0.373, -8.712e-7, -3.860e-5, 2.280e+1
0.372, -8.638e-7, -3.869e-5, 2.290e+1
0.371, -8.561e-7, -3.878e-5, 2.300e+1
0.370, -8.482e-7, -3.886e-5, 2.310e+1
0.369, -8.409e-7, -3.894e-5, 2.320e+1
0.368, -8.331e-7, -3.903e-5, 2.330e+1
0.367, -8.248e-7, -3.911e-5, 2.340e+1
0.366, -8.165e-7, -3.919e-5, 2.350e+1
0.365, -8.075e-7, -3.927e-5, 2.360e+1
0.364, -7.988e-7, -3.935e-5, 2.370e+1
0.363, -7.902e-7, -3.943e-5, 2.380e+1
0.362, -7.809e-7, -3.951e-5, 2.390e+1
0.361, -7.713e-7, -3.959e-5, 2.400e+1
0.360, -7.615e-7, -3.966e-5, 2.410e+1
0.359, -7.517e-7, -3.974e-5, 2.420e+1
0.358, -7.429e-7, -3.981e-5, 2.430e+1
0.357, -7.316e-7, -3.989e-5, 2.440e+1
0.356, -7.206e-7, -3.996e-5, 2.450e+1
0.355, -7.092e-7, -4.003e-5, 2.460e+1
0.354, -6.985e-7, -4.010e-5, 2.470e+1
0.353, -6.866e-7, -4.017e-5, 2.480e+1
0.352, -6.745e-7, -4.023e-5, 2.490e+1
0.351, -6.614e-7, -4.030e-5, 2.500e+1
0.350, -6.491e-7, -4.037e-5, 2.510e+1
0.349, -6.357e-7, -4.043e-5, 2.520e+1
0.348, -6.220e-7, -4.049e-5, 2.530e+1
0.347, -6.086e-7, -4.055e-5, 2.540e+1
0.346, -5.944e-7, -4.061e-5, 2.550e+1
0.345, -5.790e-7, -4.067e-5, 2.560e+1
0.344, -5.642e-7, -4.073e-5, 2.570e+1
0.343, -5.487e-7, -4.078e-5, 2.580e+1
0.342, -5.324e-7, -4.083e-5, 2.590e+1
0.341, -5.158e-7, -4.089e-5, 2.600e+1
0.340, -4.993e-7, -4.094e-5, 2.610e+1
0.339, -4.805e-7, -4.098e-5, 2.620e+1
0.338, -4.621e-7, -4.103e-5, 2.630e+1
0.337, -4.435e-7, -4.107e-5, 2.640e+1
0.336, -4.236e-7, -4.112e-5, 2.650e+1
0.335, -4.030e-7, -4.116e-5, 2.660e+1
0.334, -3.827e-7, -4.120e-5, 2.670e+1
0.333, -3.621e-7, -4.123e-5, 2.680e+1
0.332, -3.400e-7, -4.127e-5, 2.690e+1
0.331, -3.160e-7, -4.130e-5, 2.700e+1
0.330, -2.924e-7, -4.133e-5, 2.710e+1
0.329, -2.678e-7, -4.135e-5, 2.720e+1
0.328, -2.434e-7, -4.138e-5, 2.730e+1
0.327, -2.159e-7, -4.140e-5, 2.740e+1
0.326, -1.892e-7, -4.142e-5, 2.750e+1
0.325, -1.614e-7, -4.143e-5, 2.760e+1
0.324, -1.323e-7, -4.145e-5, 2.770e+1
0.323, -1.030e-7, -4.146e-5, 2.780e+1
0.322, -7.087e-8, -4.146e-5, 2.790e+1
0.321, -3.957e-8, -4.147e-5, 2.800e+1
0.320, -6.780e-9, -4.147e-5, 2.810e+1
0.319, 2.720e-8, -4.147e-5, 2.820e+1
0.318, 6.262e-8, -4.146e-5, 2.830e+1
0.317, 9.873e-8, -4.145e-5, 2.840e+1
0.316, 1.370e-7, -4.144e-5, 2.850e+1
0.315, 1.754e-7, -4.142e-5, 2.860e+1
0.314, 2.172e-7, -4.140e-5, 2.870e+1
0.313, 2.587e-7, -4.137e-5, 2.880e+1
0.312, 3.021e-7, -4.134e-5, 2.890e+1
0.311, 3.473e-7, -4.131e-5, 2.900e+1
0.310, 3.925e-7, -4.127e-5, 2.910e+1
0.309, 4.410e-7, -4.122e-5, 2.920e+1
0.308, 4.909e-7, -4.117e-5, 2.930e+1
0.307, 5.429e-7, -4.112e-5, 2.940e+1
0.306, 5.959e-7, -4.106e-5, 2.950e+1
0.305, 6.480e-7, -4.100e-5, 2.960e+1
0.304, 7.051e-7, -4.093e-5, 2.970e+1
0.303, 7.652e-7, -4.085e-5, 2.980e+1
0.302, 8.243e-7, -4.077e-5, 2.990e+1
0.301, 8.891e-7, -4.068e-5, 3.000e+1
0.300, 9.541e-7, -4.058e-5, 3.010e+1
0.299, 1.019e-6, -4.048e-5, 3.020e+1
0.298, 1.088e-6, -4.037e-5, 3.030e+1
0.297, 1.161e-6, -4.026e-5, 3.040e+1
0.296, 1.235e-6, -4.013e-5, 3.050e+1
0.295, 1.312e-6, -4.000e-5, 3.060e+1
0.294, 1.391e-6, -3.986e-5, 3.070e+1
0.293, 1.472e-6, -3.971e-5, 3.080e+1
0.292, 1.556e-6, -3.956e-5, 3.090e+1
0.291, 1.640e-6, -3.939e-5, 3.100e+1
0.290, 1.729e-6, -3.922e-5, 3.110e+1
0.289, 1.824e-6, -3.904e-5, 3.120e+1
0.288, 1.920e-6, -3.885e-5, 3.130e+1
0.287, 2.016e-6, -3.865e-5, 3.140e+1
0.286, 2.118e-6, -3.843e-5, 3.150e+1
0.285, 2.225e-6, -3.821e-5, 3.160e+1
0.284, 2.333e-6, -3.798e-5, 3.170e+1
0.283, 2.444e-6, -3.773e-5, 3.180e+1
0.282, 2.562e-6, -3.748e-5, 3.190e+1
0.281, 2.674e-6, -3.721e-5, 3.200e+1
0.280, 2.793e-6, -3.693e-5, 3.210e+1
0.279, 2.921e-6, -3.664e-5, 3.220e+1
0.278, 3.050e-6, -3.633e-5, 3.230e+1
0.277, 3.187e-6, -3.601e-5, 3.240e+1
0.276, 3.323e-6, -3.568e-5, 3.250e+1
0.275, 3.461e-6, -3.534e-5, 3.260e+1
0.274, 3.608e-6, -3.498e-5, 3.270e+1
0.273, 3.754e-6, -3.460e-5, 3.280e+1
0.272, 3.910e-6, -3.421e-5, 3.290e+1
0.271, 4.066e-6, -3.380e-5, 3.300e+1
0.270, 4.228e-6, -3.338e-5, 3.310e+1
0.269, 4.392e-6, -3.294e-5, 3.320e+1
0.268, 4.564e-6, -3.248e-5, 3.330e+1
0.267, 4.737e-6, -3.201e-5, 3.340e+1
0.266, 4.912e-6, -3.152e-5, 3.350e+1
0.265, 5.094e-6, -3.101e-5, 3.360e+1
0.264, 5.284e-6, -3.048e-5, 3.370e+1
0.263, 5.478e-6, -2.993e-5, 3.380e+1
0.262, 5.672e-6, -2.937e-5, 3.390e+1
0.261, 5.871e-6, -2.878e-5, 3.400e+1
0.260, 6.076e-6, -2.817e-5, 3.410e+1
0.259, 6.287e-6, -2.754e-5, 3.420e+1
0.258, 6.499e-6, -2.689e-5, 3.430e+1
0.257, 6.715e-6, -2.622e-5, 3.440e+1
0.256, 6.919e-6, -2.553e-5, 3.450e+1
0.255, 7.141e-6, -2.482e-5, 3.460e+1
0.254, 7.370e-6, -2.408e-5, 3.470e+1
0.253, 7.618e-6, -2.332e-5, 3.480e+1
0.252, 7.853e-6, -2.253e-5, 3.490e+1
0.251, 8.094e-6, -2.172e-5, 3.500e+1
0.250, 8.349e-6, -2.089e-5, 3.510e+1
0.249, 8.598e-6, -2.003e-5, 3.520e+1
0.248, 8.851e-6, -1.914e-5, 3.530e+1
0.247, 9.108e-6, -1.823e-5, 3.540e+1
0.246, 9.368e-6, -1.729e-5, 3.550e+1
0.245, 9.634e-6, -1.633e-5, 3.560e+1
0.244, 9.899e-6, -1.534e-5, 3.570e+1
0.243, 1.017e-5, -1.432e-5, 3.580e+1
0.242, 1.044e-5, -1.328e-5, 3.590e+1
0.241, 1.072e-5, -1.221e-5, 3.600e+1
0.240, 1.099e-5, -1.111e-5, 3.610e+1
0.239, 1.127e-5, -9.983e-6, 3.620e+1
0.238, 1.155e-5, -8.829e-6, 3.630e+1
0.237, 1.183e-5, -7.646e-6, 3.640e+1
0.236, 1.211e-5, -6.435e-6, 3.650e+1
0.235, 1.239e-5, -5.196e-6, 3.660e+1
0.234, 1.268e-5, -3.929e-6, 3.670e+1
0.233, 1.296e-5, -2.633e-6, 3.680e+1
0.232, 1.324e-5, -1.308e-6, 3.690e+1
0.231, 1.352e-5, 4.335e-8, 3.700e+1
0.230, 1.380e-5, 1.423e-6, 3.710e+1
0.229, 1.408e-5, 2.831e-6, 3.720e+1
0.228, 1.436e-5, 4.267e-6, 3.730e+1
0.227, 1.464e-5, 5.731e-6, 3.740e+1
0.226, 1.492e-5, 7.223e-6, 3.750e+1
0.225, 1.519e-5, 8.742e-6, 3.760e+1
0.224, 1.546e-5, 1.029e-5, 3.770e+1
0.223, 1.574e-5, 1.186e-5, 3.780e+1
0.222, 1.600e-5, 1.346e-5, 3.790e+1
0.221, 1.626e-5, 1.509e-5, 3.800e+1
0.220, 1.653e-5, 1.674e-5, 3.810e+1
0.219, 1.678e-5, 1.842e-5, 3.820e+1
0.218, 1.703e-5, 2.012e-5, 3.830e+1
0.217, 1.728e-5, 2.185e-5, 3.840e+1
0.216, 1.751e-5, 2.360e-5, 3.850e+1
0.215, 1.775e-5, 2.538e-5, 3.860e+1
0.214, 1.798e-5, 2.717e-5, 3.870e+1
0.213, 1.819e-5, 2.899e-5, 3.880e+1
0.212, 1.842e-5, 3.083e-5, 3.890e+1
0.211, 1.864e-5, 3.270e-5, 3.900e+1
0.210, 1.884e-5, 3.458e-5, 3.910e+1
0.209, 1.903e-5, 3.649e-5, 3.920e+1
0.208, 1.922e-5, 3.841e-5, 3.930e+1
0.207, 1.941e-5, 4.035e-5, 3.940e+1
0.206, 1.957e-5, 4.231e-5, 3.950e+1
0.205, 1.978e-5, 4.428e-5, 3.960e+1
0.204, 1.996e-5, 4.628e-5, 3.970e+1
0.203, 2.010e-5, 4.829e-5, 3.980e+1
0.202, 2.024e-5, 5.031e-5, 3.990e+1
0.201, 2.037e-5, 5.235e-5, 4.000e+1
0.200, 2.050e-5, 5.440e-5, 4.010e+1
0.199, 2.061e-5, 5.646e-5, 4.020e+1
0.198, 2.073e-5, 5.854e-5, 4.030e+1
0.197, 2.083e-5, 6.062e-5, 4.040e+1
0.196, 2.094e-5, 6.271e-5, 4.050e+1
0.195, 2.102e-5, 6.482e-5, 4.060e+1
0.194, 2.111e-5, 6.693e-5, 4.070e+1
0.193, 2.118e-5, 6.904e-5, 4.080e+1
0.192, 2.125e-5, 7.117e-5, 4.090e+1
0.191, 2.131e-5, 7.330e-5, 4.100e+1
0.190, 2.137e-5, 7.544e-5, 4.110e+1
0.189, 2.142e-5, 7.758e-5, 4.120e+1
0.188, 2.145e-5, 7.973e-5, 4.130e+1
0.187, 2.147e-5, 8.187e-5, 4.140e+1
0.186, 2.150e-5, 8.402e-5, 4.150e+1
0.185, 2.153e-5, 8.618e-5, 4.160e+1
0.184, 2.155e-5, 8.833e-5, 4.170e+1
0.183, 2.155e-5, 9.049e-5, 4.180e+1
0.182, 2.155e-5, 9.264e-5, 4.190e+1
0.181, 2.154e-5, 9.479e-5, 4.200e+1
0.180, 2.153e-5, 9.695e-5, 4.210e+1
0.179, 2.150e-5, 9.910e-5, 4.220e+1
0.178, 2.148e-5, 1.012e-4, 4.230e+1
0.177, 2.145e-5, 1.034e-4, 4.240e+1
0.176, 2.142e-5, 1.055e-4, 4.250e+1
0.175, 2.139e-5, 1.077e-4, 4.260e+1
0.174, 2.135e-5, 1.098e-4, 4.270e+1
0.173, 2.130e-5, 1.119e-4, 4.280e+1
0.172, 2.125e-5, 1.141e-4, 4.290e+1
0.171, 2.119e-5, 1.162e-4, 4.300e+1
0.170, 2.114e-5, 1.183e-4, 4.310e+1
0.169, 2.107e-5, 1.204e-4, 4.320e+1
0.168, 2.101e-5, 1.225e-4, 4.330e+1
0.167, 2.094e-5, 1.246e-4, 4.340e+1
0.166, 2.087e-5, 1.267e-4, 4.350e+1
0.165, 2.080e-5, 1.288e-4, 4.360e+1
0.164, 2.072e-5, 1.308e-4, 4.370e+1
0.163, 2.065e-5, 1.329e-4, 4.380e+1
0.162, 2.057e-5, 1.350e-4, 4.390e+1
0.161, 2.048e-5, 1.370e-4, 4.400e+1
0.160, 2.040e-5, 1.390e-4, 4.410e+1
0.159, 2.032e-5, 1.411e-4, 4.420e+1
0.158, 2.023e-5, 1.431e-4, 4.430e+1
0.157, 2.014e-5, 1.451e-4, 4.440e+1
0.156, 2.005e-5, 1.471e-4, 4.450e+1
0.155, 1.996e-5, 1.491e-4, 4.460e+1
0.154, 1.986e-5, 1.511e-4, 4.470e+1
0.153, 1.977e-5, 1.531e-4, 4.480e+1
0.152, 1.967e-5, 1.550e-4, 4.490e+1
0.151, 1.958e-5, 1.570e-4, 4.500e+1
0.150, 1.949e-5, 1.590e-4, 4.510e+1
0.149, 1.939e-5, 1.609e-4, 4.520e+1
0.148, 1.929e-5, 1.628e-4, 4.530e+1
0.147, 1.920e-5, 1.647e-4, 4.540e+1
0.146, 1.911e-5, 1.667e-4, 4.550e+1
0.145, 1.901e-5, 1.686e-4, 4.560e+1
0.144, 1.892e-5, 1.704e-4, 4.570e+1
0.143, 1.882e-5, 1.723e-4, 4.580e+1
0.142, 1.873e-5, 1.742e-4, 4.590e+1
0.141, 1.863e-5, 1.761e-4, 4.600e+1
0.140, 1.854e-5, 1.779e-4, 4.610e+1
0.139, 1.844e-5, 1.798e-4, 4.620e+1
0.138, 1.835e-5, 1.816e-4, 4.630e+1
0.137, 1.826e-5, 1.834e-4, 4.640e+1
0.136, 1.816e-5, 1.852e-4, 4.650e+1
0.135, 1.807e-5, 1.870e-4, 4.660e+1
0.134, 1.798e-5, 1.888e-4, 4.670e+1
0.133, 1.789e-5, 1.906e-4, 4.680e+1
0.132, 1.780e-5, 1.924e-4, 4.690e+1
0.131, 1.771e-5, 1.942e-4, 4.700e+1
0.130, 1.762e-5, 1.959e-4, 4.710e+1
0.129, 1.753e-5, 1.977e-4, 4.720e+1
0.128, 1.744e-5, 1.994e-4, 4.730e+1
0.127, 1.736e-5, 2.012e-4, 4.740e+1
0.126, 1.727e-5, 2.029e-4, 4.750e+1
0.125, 1.719e-5, 2.046e-4, 4.760e+1
0.124, 1.710e-5, 2.063e-4, 4.770e+1
0.123, 1.702e-5, 2.080e-4, 4.780e+1
0.122, 1.694e-5, 2.097e-4, 4.790e+1
0.121, 1.685e-5, 2.114e-4, 4.800e+1
0.120, 1.677e-5, 2.131e-4, 4.810e+1
0.119, 1.669e-5, 2.148e-4, 4.820e+1
0.118, 1.662e-5, 2.164e-4, 4.830e+1
0.117, 1.654e-5, 2.181e-4, 4.840e+1
0.116, 1.646e-5, 2.197e-4, 4.850e+1
0.115, 1.639e-5, 2.214e-4, 4.860e+1
0.114, 1.631e-5, 2.230e-4, 4.870e+1
0.113, 1.624e-5, 2.246e-4, 4.880e+1
0.112, 1.617e-5, 2.262e-4, 4.890e+1
0.111, 1.609e-5, 2.278e-4, 4.900e+1
0.110, 1.602e-5, 2.294e-4, 4.910e+1
0.109, 1.595e-5, 2.310e-4, 4.920e+1
0.108, 1.588e-5, 2.326e-4, 4.930e+1
0.107, 1.582e-5, 2.342e-4, 4.940e+1
0.106, 1.575e-5, 2.358e-4, 4.950e+1
0.105, 1.568e-5, 2.374e-4, 4.960e+1
0.104, 1.562e-5, 2.389e-4, 4.970e+1
0.103, 1.555e-5, 2.405e-4, 4.980e+1
0.102, 1.549e-5, 2.420e-4, 4.990e+1
0.101, 1.542e-5, 2.436e-4, 5.000e+1
0.100, 1.536e-5, 2.451e-4, 5.010e+1
0.099, 1.530e-5, 2.466e-4, 5.020e+1
0.098, 1.524e-5, 2.481e-4, 5.030e+1
0.097, 1.518e-5, 2.497e-4, 5.040e+1
0.096, 1.512e-5, 2.512e-4, 5.050e+1
0.095, 1.506e-5, 2.527e-4, 5.060e+1
0.094, 1.501e-5, 2.542e-4, 5.070e+1
0.093, 1.495e-5, 2.557e-4, 5.080e+1
0.092, 1.489e-5, 2.572e-4, 5.090e+1
0.091, 1.484e-5, 2.587e-4, 5.100e+1
0.090, 1.479e-5, 2.601e-4, 5.110e+1
0.089, 1.473e-5, 2.616e-4, 5.120e+1
0.088, 1.468e-5, 2.631e-4, 5.130e+1
0.087, 1.463e-5, 2.645e-4, 5.140e+1
0.086, 1.458e-5, 2.660e-4, 5.150e+1
0.085, 1.453e-5, 2.674e-4, 5.160e+1
0.084, 1.448e-5, 2.689e-4, 5.170e+1
0.083, 1.443e-5, 2.703e-4, 5.180e+1
0.082, 1.438e-5, 2.718e-4, 5.190e+1
0.081, 1.434e-5, 2.732e-4, 5.200e+1
0.080, 1.429e-5, 2.746e-4, 5.210e+1
0.079, 1.425e-5, 2.761e-4, 5.220e+1
0.078, 1.420e-5, 2.775e-4, 5.230e+1
0.077, 1.416e-5, 2.789e-4, 5.240e+1
0.076, 1.411e-5, 2.803e-4, 5.250e+1
0.075, 1.407e-5, 2.817e-4, 5.260e+1
0.074, 1.403e-5, 2.831e-4, 5.270e+1
0.073, 1.399e-5, 2.845e-4, 5.280e+1
0.072, 1.394e-5, 2.859e-4, 5.290e+1
0.071, 1.390e-5, 2.873e-4, 5.300e+1
0.070, 1.387e-5, 2.887e-4, 5.310e+1
0.069, 1.383e-5, 2.901e-4, 5.320e+1
0.068, 1.379e-5, 2.915e-4, 5.330e+1
0.067, 1.375e-5, 2.928e-4, 5.340e+1
0.066, 1.371e-5, 2.942e-4, 5.350e+1
0.065, 1.368e-5, 2.956e-4, 5.360e+1
0.064, 1.364e-5, 2.969e-4, 5.370e+1
0.063, 1.361e-5, 2.983e-4, 5.380e+1
0.062, 1.357e-5, 2.996e-4, 5.390e+1
0.061, 1.354e-5, 3.010e-4, 5.400e+1
0.060, 1.350e-5, 3.024e-4, 5.410e+1
0.059, 1.347e-5, 3.037e-4, 5.420e+1
0.058, 1.344e-5, 3.050e-4, 5.430e+1
0.057, 1.341e-5, 3.064e-4, 5.440e+1
0.056, 1.337e-5, 3.077e-4, 5.450e+1
0.055, 1.334e-5, 3.091e-4, 5.460e+1
0.054, 1.331e-5, 3.104e-4, 5.470e+1
0.053, 1.328e-5, 3.117e-4, 5.480e+1
0.052, 1.325e-5, 3.130e-4, 5.490e+1
0.051, 1.322e-5, 3.144e-4, 5.500e+1
0.050, 1.320e-5, 3.157e-4, 5.510e+1
0.049, 1.317e-5, 3.170e-4, 5.520e+1
0.048, 1.314e-5, 3.183e-4, 5.530e+1
0.047, 1.312e-5, 3.196e-4, 5.540e+1
0.046, 1.309e-5, 3.209e-4, 5.550e+1
0.045, 1.307e-5, 3.222e-4, 5.560e+1
0.044, 1.304e-5, 3.235e-4, 5.570e+1
0.043, 1.302e-5, 3.248e-4, 5.580e+1
0.042, 1.299e-5, 3.261e-4, 5.590e+1
0.041, 1.297e-5, 3.274e-4, 5.600e+1
0.040, 1.295e-5, 3.287e-4, 5.610e+1
0.039, 1.292e-5, 3.300e-4, 5.620e+1
0.038, 1.290e-5, 3.313e-4, 5.630e+1
0.037, 1.288e-5, 3.326e-4, 5.640e+1
0.036, 1.285e-5, 3.339e-4, 5.650e+1
0.035, 1.283e-5, 3.352e-4, 5.660e+1
0.034, 1.281e-5, 3.365e-4, 5.670e+1
0.033, 1.279e-5, 3.377e-4, 5.680e+1
0.032, 1.278e-5, 3.390e-4, 5.690e+1
0.031, 1.276e-5, 3.403e-4, 5.700e+1
0.030, 1.274e-5, 3.416e-4, 5.710e+1
0.029, 1.272e-5, 3.428e-4, 5.720e+1
0.028, 1.270e-5, 3.441e-4, 5.730e+1
0.027, 1.269e-5, 3.454e-4, 5.740e+1
0.026, 1.267e-5, 3.466e-4, 5.750e+1
0.025, 1.266e-5, 3.479e-4, 5.760e+1
0.024, 1.264e-5, 3.492e-4, 5.770e+1
0.023, 1.263e-5, 3.504e-4, 5.780e+1
0.022, 1.261e-5, 3.517e-4, 5.790e+1
0.021, 1.260e-5, 3.530e-4, 5.800e+1
0.020, 1.258e-5, 3.542e-4, 5.810e+1
0.019, 1.257e-5, 3.555e-4, 5.820e+1
0.018, 1.256e-5, 3.567e-4, 5.830e+1
0.017, 1.255e-5, 3.580e-4, 5.840e+1
0.016, 1.253e-5, 3.592e-4, 5.850e+1
0.015, 1.252e-5, 3.605e-4, 5.860e+1
0.014, 1.251e-5, 3.617e-4, 5.870e+1
0.013, 1.250e-5, 3.630e-4, 5.880e+1
0.012, 1.249e-5, 3.642e-4, 5.890e+1
0.011, 1.248e-5, 3.655e-4, 5.900e+1
0.010, 1.247e-5, 3.667e-4, 5.910e+1
0.009, 1.246e-5, 3.680e-4, 5.920e+1
0.008, 1.245e-5, 3.692e-4, 5.930e+1
0.007, 1.245e-5, 3.705e-4, 5.940e+1
0.006, 1.244e-5, 3.717e-4, 5.950e+1
0.005, 1.243e-5, 3.730e-4, 5.960e+1
0.004, 1.242e-5, 3.742e-4, 5.970e+1
0.003, 1.242e-5, 3.754e-4, 5.980e+1
0.002, 1.241e-5, 3.767e-4, 5.990e+1
0.001, 1.241e-5, 3.779e-4, 6.000e+1

Segment 2:
0.000, 1.236e-5, 3.792e-4, 6.010e+1
0.001, 1.226e-5, 3.804e-4, 6.020e+1
0.002, 1.217e-5, 3.816e-4, 6.030e+1
0.003, 1.210e-5, 3.828e-4, 6.040e+1
0.004, 1.203e-5, 3.840e-4, 6.050e+1
0.005, 1.197e-5, 3.852e-4, 6.060e+1
0.006, 1.191e-5, 3.864e-4, 6.070e+1
0.007, 1.185e-5, 3.876e-4, 6.080e+1
0.008, 1.179e-5, 3.888e-4, 6.090e+1
0.009, 1.173e-5, 3.899e-4, 6.100e+1
0.010, 1.168e-5, 3.911e-4, 6.110e+1
0.011, 1.162e-5, 3.923e-4, 6.120e+1
0.012, 1.157e-5, 3.934e-4, 6.130e+1
0.013, 1.152e-5, 3.946e-4, 6.140e+1
0.014, 1.147e-5, 3.957e-4, 6.150e+1
0.015, 1.142e-5, 3.969e-4, 6.160e+1
0.016, 1.137e-5, 3.980e-4, 6.170e+1
0.017, 1.132e-5, 3.991e-4, 6.180e+1
0.018, 1.128e-5, 4.003e-4, 6.190e+1
0.019, 1.123e-5, 4.014e-4, 6.200e+1
0.020, 1.119e-5, 4.025e-4, 6.210e+1
0.021, 1.114e-5, 4.036e-4, 6.220e+1
0.022, 1.110e-5, 4.047e-4, 6.230e+1
0.023, 1.106e-5, 4.058e-4, 6.240e+1
0.024, 1.101e-5, 4.069e-4, 6.250e+1
0.025, 1.097e-5, 4.080e-4, 6.260e+1
0.026, 1.093e-5, 4.091e-4, 6.270e+1
0.027, 1.089e-5, 4.102e-4, 6.280e+1
0.028, 1.085e-5, 4.113e-4, 6.290e+1
0.029, 1.081e-5, 4.124e-4, 6.300e+1
0.030, 1.077e-5, 4.135e-4, 6.310e+1
0.031, 1.073e-5, 4.145e-4, 6.320e+1
0.032, 1.069e-5, 4.156e-4, 6.330e+1
0.033, 1.066e-5, 4.167e-4, 6.340e+1
0.034, 1.062e-5, 4.177e-4, 6.350e+1
0.035, 1.058e-5, 4.188e-4, 6.360e+1
0.036, 1.055e-5, 4.198e-4, 6.370e+1
0.037, 1.051e-5, 4.209e-4, 6.380e+1
0.038, 1.047e-5, 4.219e-4, 6.390e+1
0.039, 1.044e-5, 4.230e-4, 6.400e+1
0.040, 1.040e-5, 4.240e-4, 6.410e+1
0.041, 1.037e-5, 4.251e-4, 6.420e+1
0.042, 1.033e-5, 4.261e-4, 6.430e+1
0.043, 1.030e-5, 4.271e-4, 6.440e+1
0.044, 1.027e-5, 4.281e-4, 6.450e+1
0.045, 1.023e-5, 4.292e-4, 6.460e+1
0.046, 1.020e-5, 4.302e-4, 6.470e+1
0.047, 1.017e-5, 4.312e-4, 6.480e+1
0.048, 1.013e-5, 4.322e-4, 6.490e+1
0.049, 1.010e-5, 4.332e-4, 6.500e+1
0.050, 1.007e-5, 4.342e-4, 6.510e+1
0.051, 1.004e-5, 4.352e-4, 6.520e+1
0.052, 1.001e-5, 4.362e-4, 6.530e+1
0.053, 9.974e-6, 4.372e-4, 6.540e+1
0.054, 9.943e-6, 4.382e-4, 6.550e+1
0.055, 9.911e-6, 4.392e-4, 6.560e+1
0.056, 9.880e-6, 4.402e-4, 6.570e+1
0.057, 9.849e-6, 4.412e-4, 6.580e+1
0.058, 9.818e-6, 4.422e-4, 6.590e+1
0.059, 9.788e-6, 4.432e-4, 6.600e+1
0.060, 9.757e-6, 4.441e-4, 6.610e+1
0.061, 9.727e-6, 4.451e-4, 6.620e+1
0.062, 9.696e-6, 4.461e-4, 6.630e+1
0.063, 9.666e-6, 4.470e-4, 6.640e+1
0.064, 9.635e-6, 4.480e-4, 6.650e+1
0.065, 9.605e-6, 4.490e-4, 6.660e+1
0.066, 9.574e-6, 4.499e-4, 6.670e+1
0.067, 9.545e-6, 4.509e-4, 6.680e+1
0.068, 9.514e-6, 4.518e-4, 6.690e+1
0.069, 9.484e-6, 4.528e-4, 6.700e+1
0.070, 9.454e-6, 4.537e-4, 6.710e+1
0.071, 9.423e-6, 4.547e-4, 6.720e+1
0.072, 9.394e-6, 4.556e-4, 6.730e+1
0.073, 9.363e-6, 4.565e-4, 6.740e+1
0.074, 9.333e-6, 4.575e-4, 6.750e+1
0.075, 9.302e-6, 4.584e-4, 6.760e+1
0.076, 9.271e-6, 4.593e-4, 6.770e+1
0.077, 9.242e-6, 4.603e-4, 6.780e+1
0.078, 9.210e-6, 4.612e-4, 6.790e+1
0.079, 9.179e-6, 4.621e-4, 6.800e+1
0.080, 9.148e-6, 4.630e-4, 6.810e+1
0.081, 9.118e-6, 4.639e-4, 6.820e+1
0.082, 9.086e-6, 4.648e-4, 6.830e+1
0.083, 9.055e-6, 4.657e-4, 6.840e+1
0.084, 9.022e-6, 4.666e-4, 6.850e+1
0.085, 8.990e-6, 4.675e-4, 6.860e+1
0.086, 8.958e-6, 4.684e-4, 6.870e+1
0.087, 8.925e-6, 4.693e-4, 6.880e+1
0.088, 8.893e-6, 4.702e-4, 6.890e+1
0.089, 8.859e-6, 4.711e-4, 6.900e+1
0.090, 8.825e-6, 4.720e-4, 6.910e+1
0.091, 8.792e-6, 4.729e-4, 6.920e+1
0.092, 8.758e-6, 4.737e-4, 6.930e+1
0.093, 8.723e-6, 4.746e-4, 6.940e+1
0.094, 8.688e-6, 4.755e-4, 6.950e+1
0.095, 8.652e-6, 4.763e-4, 6.960e+1
0.096, 8.616e-6, 4.772e-4, 6.970e+1
0.097, 8.580e-6, 4.781e-4, 6.980e+1
0.098, 8.543e-6, 4.789e-4, 6.990e+1
0.099, 8.505e-6, 4.798e-4, 7.000e+1
0.100, 8.467e-6, 4.806e-4, 7.010e+1
0.101, 8.430e-6, 4.815e-4, 7.020e+1
0.102, 8.389e-6, 4.823e-4, 7.030e+1
0.103, 8.349e-6, 4.831e-4, 7.040e+1
0.104, 8.309e-6, 4.840e-4, 7.050e+1
0.105, 8.267e-6, 4.848e-4, 7.060e+1
0.106, 8.226e-6, 4.856e-4, 7.070e+1
0.107, 8.183e-6, 4.864e-4, 7.080e+1
0.108, 8.139e-6, 4.872e-4, 7.090e+1
0.109, 8.095e-6, 4.881e-4, 7.100e+1
0.110, 8.049e-6, 4.889e-4, 7.110e+1
0.111, 8.003e-6, 4.897e-4, 7.120e+1
0.112, 7.956e-6, 4.905e-4, 7.130e+1
0.113, 7.908e-6, 4.912e-4, 7.140e+1
0.114, 7.859e-6, 4.920e-4, 7.150e+1
0.115, 7.808e-6, 4.928e-4, 7.160e+1
0.116, 7.755e-6, 4.936e-4, 7.170e+1
0.117, 7.704e-6, 4.944e-4, 7.180e+1
0.118, 7.650e-6, 4.951e-4, 7.190e+1
0.119, 7.594e-6, 4.959e-4, 7.200e+1
0.120, 7.538e-6, 4.966e-4, 7.210e+1
0.121, 7.480e-6, 4.974e-4, 7.220e+1
0.122, 7.420e-6, 4.981e-4, 7.230e+1
0.123, 7.361e-6, 4.989e-4, 7.240e+1
0.124, 7.298e-6, 4.996e-4, 7.250e+1
0.125, 7.234e-6, 5.003e-4, 7.260e+1
0.126, 7.168e-6, 5.010e-4, 7.270e+1
0.127, 7.101e-6, 5.017e-4, 7.280e+1
0.128, 7.033e-6, 5.024e-4, 7.290e+1
0.129, 6.964e-6, 5.031e-4, 7.300e+1
0.130, 6.890e-6, 5.038e-4, 7.310e+1
0.131, 6.816e-6, 5.045e-4, 7.320e+1
0.132, 6.740e-6, 5.052e-4, 7.330e+1
0.133, 6.663e-6, 5.059e-4, 7.340e+1
0.134, 6.582e-6, 5.065e-4, 7.350e+1
0.135, 6.498e-6, 5.072e-4, 7.360e+1
0.136, 6.413e-6, 5.078e-4, 7.370e+1
0.137, 6.325e-6, 5.084e-4, 7.380e+1
0.138, 6.235e-6, 5.091e-4, 7.390e+1
0.139, 6.144e-6, 5.097e-4, 7.400e+1
0.140, 6.051e-6, 5.103e-4, 7.410e+1
0.141, 5.952e-6, 5.109e-4, 7.420e+1
0.142, 5.852e-6, 5.115e-4, 7.430e+1
0.143, 5.747e-6, 5.120e-4, 7.440e+1
0.144, 5.642e-6, 5.126e-4, 7.450e+1
0.145, 5.535e-6, 5.132e-4, 7.460e+1
0.146, 5.424e-6, 5.137e-4, 7.470e+1
0.147, 5.309e-6, 5.142e-4, 7.480e+1
0.148, 5.190e-6, 5.147e-4, 7.490e+1
0.149, 5.070e-6, 5.153e-4, 7.500e+1
0.150, 4.946e-6, 5.157e-4, 7.510e+1
0.151, 4.821e-6, 5.162e-4, 7.520e+1
0.152, 4.691e-6, 5.167e-4, 7.530e+1
0.153, 4.555e-6, 5.172e-4, 7.540e+1
0.154, 4.429e-6, 5.176e-4, 7.550e+1
0.155, 4.282e-6, 5.180e-4, 7.560e+1
0.156, 4.135e-6, 5.184e-4, 7.570e+1
0.157, 3.988e-6, 5.188e-4, 7.580e+1
0.158, 3.833e-6, 5.192e-4, 7.590e+1
0.159, 3.678e-6, 5.196e-4, 7.600e+1
0.160, 3.513e-6, 5.199e-4, 7.610e+1
0.161, 3.346e-6, 5.203e-4, 7.620e+1
0.162, 3.179e-6, 5.206e-4, 7.630e+1
0.163, 3.010e-6, 5.209e-4, 7.640e+1
0.164, 2.829e-6, 5.212e-4, 7.650e+1
0.165, 2.648e-6, 5.214e-4, 7.660e+1
0.166, 2.459e-6, 5.217e-4, 7.670e+1
0.167, 2.273e-6, 5.219e-4, 7.680e+1
0.168, 2.077e-6, 5.221e-4, 7.690e+1
0.169, 1.877e-6, 5.223e-4, 7.700e+1
0.170, 1.675e-6, 5.225e-4, 7.710e+1
0.171, 1.466e-6, 5.226e-4, 7.720e+1
0.172, 1.254e-6, 5.227e-4, 7.730e+1
0.173, 1.040e-6, 5.229e-4, 7.740e+1
0.174, 8.151e-7, 5.229e-4, 7.750e+1
0.175, 5.933e-7, 5.230e-4, 7.760e+1
0.176, 3.662e-7, 5.230e-4, 7.770e+1
0.177, 1.275e-7, 5.230e-4, 7.780e+1
0.178, -1.138e-7, 5.230e-4, 7.790e+1
0.179, -3.488e-7, 5.230e-4, 7.800e+1
0.180, -5.941e-7, 5.229e-4, 7.810e+1
0.181, -8.469e-7, 5.229e-4, 7.820e+1
0.182, -1.101e-6, 5.227e-4, 7.830e+1
0.183, -1.354e-6, 5.226e-4, 7.840e+1
0.184, -1.620e-6, 5.224e-4, 7.850e+1
0.185, -1.884e-6, 5.223e-4, 7.860e+1
0.186, -2.155e-6, 5.220e-4, 7.870e+1
0.187, -2.430e-6, 5.218e-4, 7.880e+1
0.188, -2.700e-6, 5.215e-4, 7.890e+1
0.189, -2.977e-6, 5.212e-4, 7.900e+1
0.190, -3.257e-6, 5.209e-4, 7.910e+1
0.191, -3.541e-6, 5.206e-4, 7.920e+1
0.192, -3.821e-6, 5.202e-4, 7.930e+1
0.193, -4.110e-6, 5.198e-4, 7.940e+1
0.194, -4.399e-6, 5.193e-4, 7.950e+1
0.195, -4.691e-6, 5.188e-4, 7.960e+1
0.196, -4.986e-6, 5.184e-4, 7.970e+1
0.197, -5.279e-6, 5.178e-4, 7.980e+1
0.198, -5.568e-6, 5.173e-4, 7.990e+1
0.199, -5.863e-6, 5.167e-4, 8.000e+1
0.200, -6.153e-6, 5.161e-4, 8.010e+1
0.201, -6.455e-6, 5.154e-4, 8.020e+1
0.202, -6.747e-6, 5.147e-4, 8.030e+1
0.203, -7.046e-6, 5.140e-4, 8.040e+1
0.204, -7.333e-6, 5.133e-4, 8.050e+1
0.205, -7.670e-6, 5.125e-4, 8.060e+1
0.206, -7.959e-6, 5.117e-4, 8.070e+1
0.207, -8.227e-6, 5.109e-4, 8.080e+1
0.208, -8.512e-6, 5.101e-4, 8.090e+1
0.209, -8.791e-6, 5.092e-4, 8.100e+1
0.210, -9.068e-6, 5.083e-4, 8.110e+1
0.211, -9.336e-6, 5.074e-4, 8.120e+1
0.212, -9.609e-6, 5.064e-4, 8.130e+1
0.213, -9.878e-6, 5.054e-4, 8.140e+1
0.214, -1.014e-5, 5.044e-4, 8.150e+1
0.215, -1.040e-5, 5.033e-4, 8.160e+1
0.216, -1.065e-5, 5.023e-4, 8.170e+1
0.217, -1.090e-5, 5.012e-4, 8.180e+1
0.218, -1.114e-5, 5.001e-4, 8.190e+1
0.219, -1.138e-5, 4.989e-4, 8.200e+1
0.220, -1.161e-5, 4.978e-4, 8.210e+1
0.221, -1.182e-5, 4.966e-4, 8.220e+1
0.222, -1.205e-5, 4.954e-4, 8.230e+1
0.223, -1.225e-5, 4.942e-4, 8.240e+1
0.224, -1.246e-5, 4.929e-4, 8.250e+1
0.225, -1.266e-5, 4.917e-4, 8.260e+1
0.226, -1.283e-5, 4.904e-4, 8.270e+1
0.227, -1.303e-5, 4.891e-4, 8.280e+1
0.228, -1.320e-5, 4.878e-4, 8.290e+1
0.229, -1.336e-5, 4.864e-4, 8.300e+1
0.230, -1.353e-5, 4.851e-4, 8.310e+1
0.231, -1.367e-5, 4.837e-4, 8.320e+1
0.232, -1.381e-5, 4.823e-4, 8.330e+1
0.233, -1.394e-5, 4.809e-4, 8.340e+1
0.234, -1.407e-5, 4.795e-4, 8.350e+1
0.235, -1.419e-5, 4.781e-4, 8.360e+1
0.236, -1.429e-5, 4.767e-4, 8.370e+1
0.237, -1.440e-5, 4.752e-4, 8.380e+1
0.238, -1.450e-5, 4.738e-4, 8.390e+1
0.239, -1.459e-5, 4.723e-4, 8.400e+1
0.240, -1.466e-5, 4.708e-4, 8.410e+1
0.241, -1.472e-5, 4.694e-4, 8.420e+1
0.242, -1.478e-5, 4.679e-4, 8.430e+1
0.243, -1.484e-5, 4.664e-4, 8.440e+1
0.244, -1.490e-5, 4.649e-4, 8.450e+1
0.245, -1.494e-5, 4.634e-4, 8.460e+1
0.246, -1.497e-5, 4.619e-4, 8.470e+1
0.247, -1.500e-5, 4.604e-4, 8.480e+1
0.248, -1.501e-5, 4.589e-4, 8.490e+1
0.249, -1.503e-5, 4.574e-4, 8.500e+1
0.250, -1.503e-5, 4.559e-4, 8.510e+1
0.251, -1.504e-5, 4.544e-4, 8.520e+1
0.252, -1.503e-5, 4.529e-4, 8.530e+1
0.253, -1.500e-5, 4.514e-4, 8.540e+1
0.254, -1.499e-5, 4.499e-4, 8.550e+1
0.255, -1.497e-5, 4.484e-4, 8.560e+1
0.256, -1.493e-5, 4.469e-4, 8.570e+1
0.257, -1.489e-5, 4.454e-4, 8.580e+1
0.258, -1.485e-5, 4.440e-4, 8.590e+1
0.259, -1.482e-5, 4.425e-4, 8.600e+1
0.260, -1.477e-5, 4.410e-4, 8.610e+1
0.261, -1.472e-5, 4.395e-4, 8.620e+1
0.262, -1.466e-5, 4.381e-4, 8.630e+1
0.263, -1.461e-5, 4.366e-4, 8.640e+1
0.264, -1.454e-5, 4.351e-4, 8.650e+1
0.265, -1.448e-5, 4.337e-4, 8.660e+1
0.266, -1.440e-5, 4.323e-4, 8.670e+1
0.267, -1.433e-5, 4.308e-4, 8.680e+1
0.268, -1.426e-5, 4.294e-4, 8.690e+1
0.269, -1.418e-5, 4.280e-4, 8.700e+1
0.270, -1.410e-5, 4.266e-4, 8.710e+1
0.271, -1.402e-5, 4.252e-4, 8.720e+1
0.272, -1.393e-5, 4.238e-4, 8.730e+1
0.273, -1.385e-5, 4.224e-4, 8.740e+1
0.274, -1.376e-5, 4.210e-4, 8.750e+1
0.275, -1.367e-5, 4.196e-4, 8.760e+1
0.276, -1.358e-5, 4.183e-4, 8.770e+1
0.277, -1.349e-5, 4.169e-4, 8.780e+1
0.278, -1.339e-5, 4.156e-4, 8.790e+1
0.279, -1.329e-5, 4.143e-4, 8.800e+1
0.280, -1.320e-5, 4.130e-4, 8.810e+1
0.281, -1.310e-5, 4.116e-4, 8.820e+1
0.282, -1.300e-5, 4.103e-4, 8.830e+1
0.283, -1.291e-5, 4.090e-4, 8.840e+1
0.284, -1.281e-5, 4.078e-4, 8.850e+1
0.285, -1.271e-5, 4.065e-4, 8.860e+1
0.286, -1.262e-5, 4.052e-4, 8.870e+1
0.287, -1.252e-5, 4.040e-4, 8.880e+1
0.288, -1.242e-5, 4.027e-4, 8.890e+1
0.289, -1.232e-5, 4.015e-4, 8.900e+1
0.290, -1.222e-5, 4.003e-4, 8.910e+1
0.291, -1.212e-5, 3.991e-4, 8.920e+1
0.292, -1.203e-5, 3.979e-4, 8.930e+1
0.293, -1.193e-5, 3.967e-4, 8.940e+1
0.294, -1.183e-5, 3.955e-4, 8.950e+1
0.295, -1.173e-5, 3.943e-4, 8.960e+1
0.296, -1.164e-5, 3.932e-4, 8.970e+1
0.297, -1.154e-5, 3.920e-4, 8.980e+1
0.298, -1.145e-5, 3.909e-4, 8.990e+1
0.299, -1.135e-5, 3.897e-4, 9.000e+1
0.300, -1.126e-5, 3.886e-4, 9.010e+1
0.301, -1.116e-5, 3.875e-4, 9.020e+1
0.302, -1.107e-5, 3.864e-4, 9.030e+1
0.303, -1.098e-5, 3.853e-4, 9.040e+1
0.304, -1.089e-5, 3.842e-4, 9.050e+1
0.305, -1.080e-5, 3.831e-4, 9.060e+1
0.306, -1.071e-5, 3.820e-4, 9.070e+1
0.307, -1.062e-5, 3.810e-4, 9.080e+1
0.308, -1.053e-5, 3.799e-4, 9.090e+1
0.309, -1.044e-5, 3.789e-4, 9.100e+1
0.310, -1.036e-5, 3.778e-4, 9.110e+1
0.311, -1.027e-5, 3.768e-4, 9.120e+1
0.312, -1.018e-5, 3.758e-4, 9.130e+1
0.313, -1.010e-5, 3.748e-4, 9.140e+1
0.314, -1.002e-5, 3.738e-4, 9.150e+1
0.315, -9.938e-6, 3.728e-4, 9.160e+1
0.316, -9.857e-6, 3.718e-4, 9.170e+1
0.317, -9.776e-6, 3.708e-4, 9.180e+1
0.318, -9.697e-6, 3.699e-4, 9.190e+1
0.319, -9.620e-6, 3.689e-4, 9.200e+1
0.320, -9.542e-6, 3.679e-4, 9.210e+1
0.321, -9.466e-6, 3.670e-4, 9.220e+1
0.322, -9.390e-6, 3.661e-4, 9.230e+1
0.323, -9.315e-6, 3.651e-4, 9.240e+1
0.324, -9.242e-6, 3.642e-4, 9.250e+1
0.325, -9.169e-6, 3.633e-4, 9.260e+1
0.326, -9.098e-6, 3.624e-4, 9.270e+1
0.327, -9.027e-6, 3.615e-4, 9.280e+1
0.328, -8.957e-6, 3.606e-4, 9.290e+1
0.329, -8.888e-6, 3.597e-4, 9.300e+1
0.330, -8.820e-6, 3.588e-4, 9.310e+1
0.331, -8.753e-6, 3.579e-4, 9.320e+1
0.332, -8.686e-6, 3.571e-4, 9.330e+1
0.333, -8.620e-6, 3.562e-4, 9.340e+1
0.334, -8.555e-6, 3.553e-4, 9.350e+1
0.335, -8.491e-6, 3.545e-4, 9.360e+1
0.336, -8.428e-6, 3.537e-4, 9.370e+1
0.337, -8.366e-6, 3.528e-4, 9.380e+1
0.338, -8.305e-6, 3.520e-4, 9.390e+1
0.339, -8.244e-6, 3.512e-4, 9.400e+1
0.340, -8.185e-6, 3.503e-4, 9.410e+1
0.341, -8.125e-6, 3.495e-4, 9.420e+1
0.342, -8.067e-6, 3.487e-4, 9.430e+1
0.343, -8.010e-6, 3.479e-4, 9.440e+1
0.344, -7.953e-6, 3.471e-4, 9.450e+1
0.345, -7.897e-6, 3.463e-4, 9.460e+1
0.346, -7.842e-6, 3.456e-4, 9.470e+1
0.347, -7.787e-6, 3.448e-4, 9.480e+1
0.348, -7.734e-6, 3.440e-4, 9.490e+1
0.349, -7.681e-6, 3.432e-4, 9.500e+1
0.350, -7.628e-6, 3.425e-4, 9.510e+1
0.351, -7.577e-6, 3.417e-4, 9.520e+1
0.352, -7.526e-6, 3.410e-4, 9.530e+1
0.353, -7.476e-6, 3.402e-4, 9.540e+1
0.354, -7.426e-6, 3.395e-4, 9.550e+1
0.355, -7.377e-6, 3.387e-4, 9.560e+1
0.356, -7.329e-6, 3.380e-4, 9.570e+1
0.357, -7.281e-6, 3.373e-4, 9.580e+1
0.358, -7.233e-6, 3.365e-4, 9.590e+1
0.359, -7.186e-6, 3.358e-4, 9.600e+1
0.360, -7.141e-6, 3.351e-4, 9.610e+1
0.361, -7.096e-6, 3.344e-4, 9.620e+1
0.362, -7.051e-6, 3.337e-4, 9.630e+1
0.363, -7.007e-6, 3.330e-4, 9.640e+1
0.364, -6.964e-6, 3.323e-4, 9.650e+1
0.365, -6.921e-6, 3.316e-4, 9.660e+1
0.366, -6.878e-6, 3.309e-4, 9.670e+1
0.367, -6.836e-6, 3.302e-4, 9.680e+1
0.368, -6.795e-6, 3.296e-4, 9.690e+1
0.369, -6.754e-6, 3.289e-4, 9.700e+1
0.370, -6.713e-6, 3.282e-4, 9.710e+1
0.371, -6.673e-6, 3.275e-4, 9.720e+1
0.372, -6.635e-6, 3.269e-4, 9.730e+1
0.373, -6.596e-6, 3.262e-4, 9.740e+1
0.374, -6.558e-6, 3.256e-4, 9.750e+1
0.375, -6.520e-6, 3.249e-4, 9.760e+1
0.376, -6.482e-6, 3.243e-4, 9.770e+1
0.377, -6.445e-6, 3.236e-4, 9.780e+1
0.378, -6.409e-6, 3.230e-4, 9.790e+1
0.379, -6.373e-6, 3.223e-4, 9.800e+1
0.380, -6.337e-6, 3.217e-4, 9.810e+1
0.381, -6.301e-6, 3.211e-4, 9.820e+1
0.382, -6.267e-6, 3.205e-4, 9.830e+1
0.383, -6.233e-6, 3.198e-4, 9.840e+1
0.384, -6.199e-6, 3.192e-4, 9.850e+1
0.385, -6.165e-6, 3.186e-4, 9.860e+1
0.386, -6.132e-6, 3.180e-4, 9.870e+1
0.387, -6.100e-6, 3.174e-4, 9.880e+1
0.388, -6.067e-6, 3.168e-4, 9.890e+1
0.389, -6.035e-6, 3.162e-4, 9.900e+1
0.390, -6.004e-6, 3.156e-4, 9.910e+1
0.391, -5.973e-6, 3.150e-4, 9.920e+1
0.392, -5.942e-6, 3.144e-4, 9.930e+1
0.393, -5.912e-6, 3.138e-4, 9.940e+1
0.394, -5.882e-6, 3.132e-4, 9.950e+1
0.395, -5.852e-6, 3.126e-4, 9.960e+1
0.396, -5.823e-6, 3.120e-4, 9.970e+1
0.397, -5.794e-6, 3.114e-4, 9.980e+1
0.398, -5.765e-6, 3.109e-4, 9.990e+1
0.399, -5.737e-6, 3.103e-4, 1.000e+2
0.400, -5.709e-6, 3.097e-4, 1.001e+2
0.401, -5.681e-6, 3.092e-4, 1.002e+2
0.402, -5.654e-6, 3.086e-4, 1.003e+2
0.403, -5.627e-6, 3.080e-4, 1.004e+2
0.404, -5.600e-6, 3.075e-4, 1.005e+2
0.405, -5.573e-6, 3.069e-4, 1.006e+2
0.406, -5.547e-6, 3.064e-4, 1.007e+2
0.407, -5.521e-6, 3.058e-4, 1.008e+2
0.408, -5.495e-6, 3.053e-4, 1.009e+2
0.409, -5.470e-6, 3.047e-4, 1.010e+2
0.410, -5.442e-6, 3.042e-4, 1.011e+2
0.411, -5.419e-6, 3.036e-4, 1.012e+2
0.412, -5.395e-6, 3.031e-4, 1.013e+2
0.413, -5.371e-6, 3.025e-4, 1.014e+2
0.414, -5.347e-6, 3.020e-4, 1.015e+2
0.415, -5.323e-6, 3.015e-4, 1.016e+2
0.416, -5.300e-6, 3.009e-4, 1.017e+2
0.417, -5.277e-6, 3.004e-4, 1.018e+2
0.418, -5.254e-6, 2.999e-4, 1.019e+2
0.419, -5.231e-6, 2.994e-4, 1.020e+2
0.420, -5.209e-6, 2.988e-4, 1.021e+2
0.421, -5.187e-6, 2.983e-4, 1.022e+2
0.422, -5.164e-6, 2.978e-4, 1.023e+2
0.423, -5.143e-6, 2.973e-4, 1.024e+2
0.424, -5.121e-6, 2.968e-4, 1.025e+2
0.425, -5.100e-6, 2.963e-4, 1.026e+2
0.426, -5.079e-6, 2.958e-4, 1.027e+2
0.427, -5.058e-6, 2.953e-4, 1.028e+2
0.428, -5.037e-6, 2.948e-4, 1.029e+2
0.429, -5.017e-6, 2.943e-4, 1.030e+2
0.430, -4.997e-6, 2.938e-4, 1.031e+2
0.431, -4.977e-6, 2.933e-4, 1.032e+2
0.432, -4.957e-6, 2.928e-4, 1.033e+2
0.433, -4.937e-6, 2.923e-4, 1.034e+2
0.434, -4.918e-6, 2.918e-4, 1.035e+2
0.435, -4.898e-6, 2.913e-4, 1.036e+2
0.436, -4.880e-6, 2.908e-4, 1.037e+2
0.437, -4.861e-6, 2.903e-4, 1.038e+2
0.438, -4.842e-6, 2.898e-4, 1.039e+2
0.439, -4.824e-6, 2.893e-4, 1.040e+2
0.440, -4.805e-6, 2.889e-4, 1.041e+2
0.441, -4.788e-6, 2.884e-4, 1.042e+2
0.442, -4.770e-6, 2.879e-4, 1.043e+2
0.443, -4.752e-6, 2.874e-4, 1.044e+2
0.444, -4.734e-6, 2.870e-4, 1.045e+2
0.445, -4.716e-6, 2.865e-4, 1.046e+2
0.446, -4.700e-6, 2.860e-4, 1.047e+2
0.447, -4.683e-6, 2.856e-4, 1.048e+2
0.448, -4.666e-6, 2.851e-4, 1.049e+2
0.449, -4.649e-6, 2.846e-4, 1.050e+2
0.450, -4.632e-6, 2.842e-4, 1.051e+2
0.451, -4.616e-6, 2.837e-4, 1.052e+2
0.452, -4.600e-6, 2.832e-4, 1.053e+2
0.453, -4.584e-6, 2.828e-4, 1.054e+2
0.454, -4.568e-6, 2.823e-4, 1.055e+2
0.455, -4.553e-6, 2.819e-4, 1.056e+2
0.456, -4.537e-6, 2.814e-4, 1.057e+2
0.457, -4.521e-6, 2.810e-4, 1.058e+2
0.458, -4.506e-6, 2.805e-4, 1.059e+2
0.459, -4.491e-6, 2.801e-4, 1.060e+2
0.460, -4.476e-6, 2.796e-4, 1.061e+2
0.461, -4.461e-6, 2.792e-4, 1.062e+2
0.462, -4.446e-6, 2.787e-4, 1.063e+2
0.463, -4.432e-6, 2.783e-4, 1.064e+2
0.464, -4.418e-6, 2.778e-4, 1.065e+2
0.465, -4.404e-6, 2.774e-4, 1.066e+2
0.466, -4.389e-6, 2.770e-4, 1.067e+2
0.467, -4.375e-6, 2.765e-4, 1.068e+2
0.468, -4.362e-6, 2.761e-4, 1.069e+2
0.469, -4.348e-6, 2.757e-4, 1.070e+2
0.470, -4.334e-6, 2.752e-4, 1.071e+2
0.471, -4.321e-6, 2.748e-4, 1.072e+2
0.472, -4.307e-6, 2.744e-4, 1.073e+2
0.473, -4.294e-6, 2.739e-4, 1.074e+2
0.474, -4.282e-6, 2.735e-4, 1.075e+2
0.475, -4.268e-6, 2.731e-4, 1.076e+2
0.476, -4.256e-6, 2.726e-4, 1.077e+2
0.477, -4.243e-6, 2.722e-4, 1.078e+2
0.478, -4.231e-6, 2.718e-4, 1.079e+2
0.479, -4.218e-6, 2.714e-4, 1.080e+2
0.480, -4.206e-6, 2.710e-4, 1.081e+2
0.481, -4.194e-6, 2.705e-4, 1.082e+2
0.482, -4.182e-6, 2.701e-4, 1.083e+2
0.483, -4.169e-6, 2.697e-4, 1.084e+2
0.484, -4.158e-6, 2.693e-4, 1.085e+2
0.485, -4.146e-6, 2.689e-4, 1.086e+2
0.486, -4.135e-6, 2.685e-4, 1.087e+2
0.487, -4.123e-6, 2.680e-4, 1.088e+2
0.488, -4.111e-6, 2.676e-4, 1.089e+2
0.489, -4.100e-6, 2.672e-4, 1.090e+2
0.490, -4.089e-6, 2.668e-4, 1.091e+2
0.491, -4.078e-6, 2.664e-4, 1.092e+2
0.492, -4.068e-6, 2.660e-4, 1.093e+2
0.493, -4.057e-6, 2.656e-4, 1.094e+2
0.494, -4.046e-6, 2.652e-4, 1.095e+2
0.495, -4.035e-6, 2.648e-4, 1.096e+2
0.496, -4.025e-6, 2.644e-4, 1.097e+2
0.497, -4.014e-6, 2.640e-4, 1.098e+2
0.498, -4.004e-6, 2.636e-4, 1.099e+2
0.499, -3.994e-6, 2.632e-4, 1.100e+2
0.500, -3.984e-6, 2.628e-4, 1.101e+2
0.501, -3.974e-6, 2.624e-4, 1.102e+2
0.502, -3.964e-6, 2.620e-4, 1.103e+2
0.503, -3.954e-6, 2.616e-4, 1.104e+2
0.504, -3.945e-6, 2.612e-4, 1.105e+2
0.505, -3.935e-6, 2.608e-4, 1.106e+2
0.506, -3.925e-6, 2.604e-4, 1.107e+2
0.507, -3.916e-6, 2.600e-4, 1.108e+2
0.508, -3.907e-6, 2.596e-4, 1.109e+2
0.509, -3.898e-6, 2.592e-4, 1.110e+2
0.510, -3.889e-6, 2.589e-4, 1.111e+2
0.511, -3.879e-6, 2.585e-4, 1.112e+2
0.512, -3.871e-6, 2.581e-4, 1.113e+2
0.513, -3.862e-6, 2.577e-4, 1.114e+2
0.514, -3.853e-6, 2.573e-4, 1.115e+2
0.515, -3.844e-6, 2.569e-4, 1.116e+2
0.516, -3.836e-6, 2.565e-4, 1.117e+2
0.517, -3.827e-6, 2.562e-4, 1.118e+2
0.518, -3.820e-6, 2.558e-4, 1.119e+2
0.519, -3.811e-6, 2.554e-4, 1.120e+2
0.520, -3.803e-6, 2.550e-4, 1.121e+2
0.521, -3.795e-6, 2.546e-4, 1.122e+2
0.522, -3.787e-6, 2.543e-4, 1.123e+2
0.523, -3.779e-6, 2.539e-4, 1.124e+2
0.524, -3.771e-6, 2.535e-4, 1.125e+2
0.525, -3.764e-6, 2.531e-4, 1.126e+2
0.526, -3.756e-6, 2.527e-4, 1.127e+2
0.527, -3.749e-6, 2.524e-4, 1.128e+2
0.528, -3.741e-6, 2.520e-4, 1.129e+2
0.529, -3.733e-6, 2.516e-4, 1.130e+2
0.530, -3.726e-6, 2.513e-4, 1.131e+2
0.531, -3.719e-6, 2.509e-4, 1.132e+2
0.532, -3.712e-6, 2.505e-4, 1.133e+2
0.533, -3.705e-6, 2.501e-4, 1.134e+2
0.534, -3.698e-6, 2.498e-4, 1.135e+2
0.535, -3.691e-6, 2.494e-4, 1.136e+2
0.536, -3.684e-6, 2.490e-4, 1.137e+2
0.537, -3.678e-6, 2.487e-4, 1.138e+2
0.538, -3.671e-6, 2.483e-4, 1.139e+2
0.539, -3.664e-6, 2.479e-4, 1.140e+2
0.540, -3.658e-6, 2.476e-4, 1.141e+2
0.541, -3.651e-6, 2.472e-4, 1.142e+2
0.542, -3.645e-6, 2.468e-4, 1.143e+2
0.543, -3.639e-6, 2.465e-4, 1.144e+2
0.544, -3.633e-6, 2.461e-4, 1.145e+2
0.545, -3.627e-6, 2.457e-4, 1.146e+2
0.546, -3.621e-6, 2.454e-4, 1.147e+2
0.547, -3.615e-6, 2.450e-4, 1.148e+2
0.548, -3.609e-6, 2.447e-4, 1.149e+2
0.549, -3.603e-6, 2.443e-4, 1.150e+2
0.550, -3.597e-6, 2.439e-4, 1.151e+2
0.551, -3.592e-6, 2.436e-4, 1.152e+2
0.552, -3.586e-6, 2.432e-4, 1.153e+2
0.553, -3.581e-6, 2.429e-4, 1.154e+2
0.554, -3.575e-6, 2.425e-4, 1.155e+2
0.555, -3.570e-6, 2.422e-4, 1.156e+2
0.556, -3.564e-6, 2.418e-4, 1.157e+2
0.557, -3.559e-6, 2.414e-4, 1.158e+2
0.558, -3.554e-6, 2.411e-4, 1.159e+2
0.559, -3.549e-6, 2.407e-4, 1.160e+2
0.560, -3.544e-6, 2.404e-4, 1.161e+2
0.561, -3.539e-6, 2.400e-4, 1.162e+2
0.562, -3.534e-6, 2.397e-4, 1.163e+2
0.563, -3.529e-6, 2.393e-4, 1.164e+2
0.564, -3.524e-6, 2.390e-4, 1.165e+2
0.565, -3.520e-6, 2.386e-4, 1.166e+2
0.566, -3.515e-6, 2.383e-4, 1.167e+2
0.567, -3.511e-6, 2.379e-4, 1.168e+2
0.568, -3.506e-6, 2.376e-4, 1.169e+2
0.569, -3.502e-6, 2.372e-4, 1.170e+2
0.570, -3.498e-6, 2.369e-4, 1.171e+2
0.571, -3.494e-6, 2.365e-4, 1.172e+2
0.572, -3.489e-6, 2.362e-4, 1.173e+2
0.573, -3.485e-6, 2.358e-4, 1.174e+2
0.574, -3.481e-6, 2.355e-4, 1.175e+2
0.575, -3.478e-6, 2.351e-4, 1.176e+2
0.576, -3.474e-6, 2.348e-4, 1.177e+2
0.577, -3.470e-6, 2.344e-4, 1.178e+2
0.578, -3.466e-6, 2.341e-4, 1.179e+2
0.579, -3.462e-6, 2.337e-4, 1.180e+2
0.580, -3.458e-6, 2.334e-4, 1.181e+2
0.581, -3.455e-6, 2.330e-4, 1.182e+2
0.582, -3.452e-6, 2.327e-4, 1.183e+2
0.583, -3.448e-6, 2.323e-4, 1.184e+2
0.584, -3.445e-6, 2.320e-4, 1.185e+2
0.585, -3.441e-6, 2.317e-4, 1.186e+2
0.586, -3.438e-6, 2.313e-4, 1.187e+2
0.587, -3.435e-6, 2.310e-4, 1.188e+2
0.588, -3.432e-6, 2.306e-4, 1.189e+2
0.589, -3.429e-6, 2.303e-4, 1.190e+2
0.590, -3.426e-6, 2.299e-4, 1.191e+2
0.591, -3.423e-6, 2.296e-4, 1.192e+2
0.592, -3.420e-6, 2.293e-4, 1.193e+2
0.593, -3.417e-6, 2.289e-4, 1.194e+2
0.594, -3.415e-6, 2.286e-4, 1.195e+2
0.595, -3.412e-6, 2.282e-4, 1.196e+2
0.596, -3.410e-6, 2.279e-4, 1.197e+2
0.597, -3.407e-6, 2.275e-4, 1.198e+2
0.598, -3.405e-6, 2.272e-4, 1.199e+2
0.599, -3.402e-6, 2.269e-4, 1.200e+2
