May 18, 2026   16:54:29
A.C. Impedance
File: 15
Data Source:  Experiment
Instrument Model:  CHI660D
Header: 
Note: 

Init E (V) = 0
High Frequency (Hz) = 1e+5
Low Frequency (Hz) = 0.1
Imp SF
Amplitude (V) = 0.015
Quiet Time (sec) = 2
Cycles (.1-1Hz) = 1

Freq/Hz, Z'/ohm, Z"/ohm, Z/ohm, Phase/deg

8.252e+4, 3.722e+1, -4.812e-1, 3.723e+1, -0.7
6.812e+4, 3.735e+1, -1.733e+0, 3.739e+1, -2.7
5.615e+4, 3.750e+1, -2.901e+0, 3.761e+1, -4.4
4.639e+4, 3.765e+1, -4.195e+0, 3.788e+1, -6.4
3.833e+4, 3.781e+1, -5.530e+0, 3.821e+1, -8.3
3.174e+4, 3.797e+1, -7.047e+0, 3.862e+1, -10.5
2.612e+4, 3.814e+1, -8.788e+0, 3.914e+1, -13.0
2.148e+4, 3.831e+1, -1.081e+1, 3.981e+1, -15.8
1.782e+4, 3.850e+1, -1.319e+1, 4.070e+1, -18.9
1.465e+4, 3.870e+1, -1.598e+1, 4.187e+1, -22.4
1.221e+4, 3.893e+1, -1.930e+1, 4.346e+1, -26.4
1.001e+4, 3.921e+1, -2.331e+1, 4.562e+1, -30.7
8.301e+3, 3.956e+1, -2.812e+1, 4.853e+1, -35.4
6.836e+3, 3.999e+1, -3.396e+1, 5.246e+1, -40.3
5.615e+3, 4.052e+1, -4.099e+1, 5.763e+1, -45.3
4.639e+3, 4.117e+1, -4.908e+1, 6.406e+1, -50.0
3.906e+3, 4.199e+1, -5.887e+1, 7.231e+1, -54.5
3.174e+3, 4.302e+1, -7.041e+1, 8.251e+1, -58.6
2.686e+3, 4.432e+1, -8.417e+1, 9.513e+1, -62.2
2.197e+3, 4.624e+1, -1.029e+2, 1.128e+2, -65.8
1.709e+3, 4.867e+1, -1.252e+2, 1.343e+2, -68.8
1.465e+3, 5.152e+1, -1.496e+2, 1.583e+2, -71.0
1.221e+3, 5.543e+1, -1.801e+2, 1.884e+2, -72.9
9.766e+2, 6.058e+1, -2.161e+2, 2.245e+2, -74.3
8.252e+2, 6.710e+1, -2.577e+2, 2.663e+2, -75.4
6.836e+2, 7.577e+1, -3.081e+2, 3.173e+2, -76.2
5.615e+2, 8.731e+1, -3.690e+2, 3.792e+2, -76.7
4.639e+2, 1.029e+2, -4.424e+2, 4.542e+2, -76.9
3.809e+2, 1.236e+2, -5.287e+2, 5.429e+2, -76.8
3.174e+2, 1.518e+2, -6.314e+2, 6.494e+2, -76.5
2.588e+2, 1.900e+2, -7.530e+2, 7.766e+2, -75.8
2.148e+2, 2.421e+2, -8.959e+2, 9.280e+2, -74.9
1.758e+2, 3.115e+2, -1.060e+3, 1.105e+3, -73.6
1.465e+2, 4.016e+2, -1.243e+3, 1.306e+3, -72.1
1.221e+2, 5.288e+2, -1.458e+3, 1.551e+3, -70.1
9.766e+1, 6.939e+2, -1.694e+3, 1.831e+3, -67.7
8.254e+1, 9.010e+2, -1.939e+3, 2.138e+3, -65.1
6.813e+1, 1.167e+3, -2.192e+3, 2.484e+3, -62.0
5.623e+1, 1.496e+3, -2.439e+3, 2.862e+3, -58.5
4.642e+1, 1.893e+3, -2.664e+3, 3.268e+3, -54.6
3.831e+1, 2.350e+3, -2.845e+3, 3.691e+3, -50.4
3.162e+1, 2.853e+3, -2.963e+3, 4.114e+3, -46.1
2.610e+1, 3.378e+3, -3.006e+3, 4.521e+3, -41.7
2.154e+1, 3.899e+3, -2.969e+3, 4.901e+3, -37.3
1.778e+1, 4.393e+3, -2.860e+3, 5.242e+3, -33.1
1.468e+1, 4.839e+3, -2.694e+3, 5.538e+3, -29.1
1.212e+1, 5.226e+3, -2.491e+3, 5.790e+3, -25.5
1.000e+1, 5.537e+3, -2.261e+3, 5.981e+3, -22.2
8.254e+0, 5.789e+3, -2.029e+3, 6.135e+3, -19.3
6.813e+0, 6.008e+3, -1.822e+3, 6.278e+3, -16.9
5.623e+0, 6.192e+3, -1.640e+3, 6.405e+3, -14.8
4.642e+0, 6.350e+3, -1.479e+3, 6.520e+3, -13.1
3.831e+0, 6.486e+3, -1.324e+3, 6.620e+3, -11.5
3.162e+0, 6.598e+3, -1.194e+3, 6.705e+3, -10.3
2.610e+0, 6.687e+3, -1.103e+3, 6.777e+3, -9.4
2.154e+0, 6.780e+3, -1.034e+3, 6.859e+3, -8.7
1.778e+0, 6.877e+3, -9.822e+2, 6.947e+3, -8.1
1.468e+0, 6.966e+3, -9.460e+2, 7.030e+3, -7.7
1.212e+0, 7.049e+3, -9.248e+2, 7.109e+3, -7.5
1.000e+0, 7.143e+3, -9.159e+2, 7.202e+3, -7.3
8.254e-1, 7.230e+3, -9.272e+2, 7.289e+3, -7.3
6.813e-1, 7.297e+3, -9.606e+2, 7.360e+3, -7.5
5.623e-1, 7.370e+3, -1.009e+3, 7.438e+3, -7.8
4.642e-1, 7.451e+3, -1.068e+3, 7.527e+3, -8.2
3.831e-1, 7.547e+3, -1.136e+3, 7.632e+3, -8.6
3.162e-1, 7.652e+3, -1.214e+3, 7.748e+3, -9.0
2.610e-1, 7.769e+3, -1.301e+3, 7.877e+3, -9.5
2.154e-1, 7.896e+3, -1.399e+3, 8.019e+3, -10.1
1.778e-1, 8.035e+3, -1.510e+3, 8.175e+3, -10.6
1.468e-1, 8.188e+3, -1.632e+3, 8.349e+3, -11.3
1.212e-1, 8.356e+3, -1.767e+3, 8.541e+3, -11.9
1.000e-1, 8.538e+3, -1.915e+3, 8.750e+3, -12.6
