May 18, 2026   16:38:15
A.C. Impedance
File: 2
Data Source:  Experiment
Instrument Model:  CHI660D
Header: 
Note: 

Init E (V) = 0
High Frequency (Hz) = 1e+5
Low Frequency (Hz) = 0.1
Imp SF
Amplitude (V) = 0.002
Quiet Time (sec) = 2
Cycles (.1-1Hz) = 1

Freq/Hz, Z'/ohm, Z"/ohm, Z/ohm, Phase/deg

8.252e+4, 3.713e+1, -1.751e-1, 3.713e+1, -0.3
6.812e+4, 3.734e+1, -1.556e+0, 3.738e+1, -2.4
5.615e+4, 3.764e+1, -2.839e+0, 3.775e+1, -4.3
4.639e+4, 3.782e+1, -4.128e+0, 3.805e+1, -6.2
3.833e+4, 3.799e+1, -5.480e+0, 3.838e+1, -8.2
3.174e+4, 3.807e+1, -7.029e+0, 3.872e+1, -10.5
2.612e+4, 3.819e+1, -8.839e+0, 3.920e+1, -13.0
2.148e+4, 3.835e+1, -1.097e+1, 3.989e+1, -16.0
1.782e+4, 3.855e+1, -1.346e+1, 4.083e+1, -19.3
1.465e+4, 3.876e+1, -1.635e+1, 4.207e+1, -22.9
1.221e+4, 3.899e+1, -1.980e+1, 4.373e+1, -26.9
1.001e+4, 3.925e+1, -2.396e+1, 4.598e+1, -31.4
8.301e+3, 3.955e+1, -2.891e+1, 4.899e+1, -36.2
6.836e+3, 3.998e+1, -3.490e+1, 5.307e+1, -41.1
5.615e+3, 4.053e+1, -4.209e+1, 5.843e+1, -46.1
4.639e+3, 4.118e+1, -5.040e+1, 6.508e+1, -50.8
3.906e+3, 4.201e+1, -6.044e+1, 7.361e+1, -55.2
3.174e+3, 4.307e+1, -7.232e+1, 8.417e+1, -59.2
2.686e+3, 4.441e+1, -8.648e+1, 9.722e+1, -62.8
2.197e+3, 4.635e+1, -1.057e+2, 1.155e+2, -66.3
1.709e+3, 4.878e+1, -1.286e+2, 1.376e+2, -69.2
1.465e+3, 5.168e+1, -1.538e+2, 1.623e+2, -71.4
1.221e+3, 5.572e+1, -1.852e+2, 1.934e+2, -73.3
9.766e+2, 6.108e+1, -2.224e+2, 2.306e+2, -74.6
8.252e+2, 6.787e+1, -2.651e+2, 2.736e+2, -75.6
6.836e+2, 7.683e+1, -3.167e+2, 3.259e+2, -76.4
5.615e+2, 8.895e+1, -3.789e+2, 3.892e+2, -76.8
4.639e+2, 1.054e+2, -4.540e+2, 4.661e+2, -76.9
3.809e+2, 1.272e+2, -5.421e+2, 5.569e+2, -76.8
3.174e+2, 1.569e+2, -6.472e+2, 6.660e+2, -76.4
2.588e+2, 1.968e+2, -7.712e+2, 7.959e+2, -75.7
2.148e+2, 2.519e+2, -9.169e+2, 9.509e+2, -74.6
1.758e+2, 3.269e+2, -1.086e+3, 1.134e+3, -73.2
1.465e+2, 4.216e+2, -1.273e+3, 1.341e+3, -71.7
1.221e+2, 5.523e+2, -1.488e+3, 1.587e+3, -69.6
9.766e+1, 7.235e+2, -1.723e+3, 1.869e+3, -67.2
8.254e+1, 9.392e+2, -1.969e+3, 2.181e+3, -64.5
6.813e+1, 1.215e+3, -2.221e+3, 2.532e+3, -61.3
5.623e+1, 1.553e+3, -2.466e+3, 2.914e+3, -57.8
4.642e+1, 1.957e+3, -2.685e+3, 3.323e+3, -53.9
3.831e+1, 2.420e+3, -2.859e+3, 3.746e+3, -49.8
3.162e+1, 2.923e+3, -2.970e+3, 4.167e+3, -45.4
2.610e+1, 3.447e+3, -3.005e+3, 4.573e+3, -41.1
2.154e+1, 3.966e+3, -2.965e+3, 4.951e+3, -36.8
1.778e+1, 4.455e+3, -2.855e+3, 5.291e+3, -32.7
1.468e+1, 4.897e+3, -2.692e+3, 5.588e+3, -28.8
1.212e+1, 5.282e+3, -2.496e+3, 5.842e+3, -25.3
1.000e+1, 5.616e+3, -2.293e+3, 6.066e+3, -22.2
8.254e+0, 5.892e+3, -2.087e+3, 6.250e+3, -19.5
6.813e+0, 6.111e+3, -1.883e+3, 6.394e+3, -17.1
5.623e+0, 6.297e+3, -1.703e+3, 6.523e+3, -15.1
4.642e+0, 6.462e+3, -1.544e+3, 6.644e+3, -13.4
3.831e+0, 6.622e+3, -1.395e+3, 6.767e+3, -11.9
3.162e+0, 6.761e+3, -1.276e+3, 6.880e+3, -10.7
2.610e+0, 6.871e+3, -1.195e+3, 6.974e+3, -9.9
2.154e+0, 6.986e+3, -1.129e+3, 7.077e+3, -9.2
1.778e+0, 7.107e+3, -1.080e+3, 7.188e+3, -8.6
1.468e+0, 7.219e+3, -1.048e+3, 7.295e+3, -8.3
1.212e+0, 7.326e+3, -1.037e+3, 7.399e+3, -8.1
1.000e+0, 7.712e+3, -9.973e+2, 7.776e+3, -7.4
8.254e-1, 8.015e+3, -9.948e+2, 8.076e+3, -7.1
6.813e-1, 7.986e+3, -1.074e+3, 8.058e+3, -7.7
5.623e-1, 7.954e+3, -1.168e+3, 8.040e+3, -8.4
4.642e-1, 7.955e+3, -1.270e+3, 8.055e+3, -9.1
3.831e-1, 8.056e+3, -1.372e+3, 8.172e+3, -9.7
3.162e-1, 8.207e+3, -1.485e+3, 8.341e+3, -10.3
2.610e-1, 8.402e+3, -1.615e+3, 8.556e+3, -10.9
2.154e-1, 8.617e+3, -1.763e+3, 8.795e+3, -11.6
1.778e-1, 8.850e+3, -1.929e+3, 9.058e+3, -12.3
1.468e-1, 9.112e+3, -2.122e+3, 9.355e+3, -13.1
1.212e-1, 9.398e+3, -2.341e+3, 9.685e+3, -14.0
1.000e-1, 9.703e+3, -2.585e+3, 1.004e+4, -14.9
