May 18, 2026   16:58:05
A.C. Impedance
File: 20
Data Source:  Experiment
Instrument Model:  CHI660D
Header: 
Note: 

Init E (V) = 0
High Frequency (Hz) = 1e+5
Low Frequency (Hz) = 0.1
Imp SF
Amplitude (V) = 0.02
Quiet Time (sec) = 2
Cycles (.1-1Hz) = 1

Freq/Hz, Z'/ohm, Z"/ohm, Z/ohm, Phase/deg

8.252e+4, 3.724e+1, -4.326e-1, 3.724e+1, -0.7
6.812e+4, 3.737e+1, -1.659e+0, 3.741e+1, -2.5
5.615e+4, 3.751e+1, -2.911e+0, 3.762e+1, -4.4
4.639e+4, 3.767e+1, -4.179e+0, 3.790e+1, -6.3
3.833e+4, 3.783e+1, -5.534e+0, 3.823e+1, -8.3
3.174e+4, 3.799e+1, -7.037e+0, 3.864e+1, -10.5
2.612e+4, 3.815e+1, -8.772e+0, 3.915e+1, -12.9
2.148e+4, 3.831e+1, -1.078e+1, 3.979e+1, -15.7
1.782e+4, 3.848e+1, -1.314e+1, 4.066e+1, -18.9
1.465e+4, 3.866e+1, -1.592e+1, 4.181e+1, -22.4
1.221e+4, 3.889e+1, -1.924e+1, 4.339e+1, -26.3
1.001e+4, 3.917e+1, -2.324e+1, 4.554e+1, -30.7
8.301e+3, 3.952e+1, -2.803e+1, 4.845e+1, -35.3
6.836e+3, 3.994e+1, -3.386e+1, 5.236e+1, -40.3
5.615e+3, 4.047e+1, -4.086e+1, 5.751e+1, -45.3
4.639e+3, 4.111e+1, -4.894e+1, 6.391e+1, -50.0
3.906e+3, 4.192e+1, -5.869e+1, 7.213e+1, -54.5
3.174e+3, 4.295e+1, -7.022e+1, 8.231e+1, -58.6
2.686e+3, 4.423e+1, -8.393e+1, 9.487e+1, -62.2
2.197e+3, 4.612e+1, -1.026e+2, 1.125e+2, -65.8
1.709e+3, 4.851e+1, -1.248e+2, 1.339e+2, -68.8
1.465e+3, 5.133e+1, -1.492e+2, 1.578e+2, -71.0
1.221e+3, 5.520e+1, -1.795e+2, 1.878e+2, -72.9
9.766e+2, 6.029e+1, -2.154e+2, 2.237e+2, -74.4
8.252e+2, 6.675e+1, -2.569e+2, 2.654e+2, -75.4
6.836e+2, 7.531e+1, -3.071e+2, 3.162e+2, -76.2
5.615e+2, 8.673e+1, -3.676e+2, 3.777e+2, -76.7
4.639e+2, 1.022e+2, -4.408e+2, 4.525e+2, -77.0
3.809e+2, 1.226e+2, -5.268e+2, 5.409e+2, -76.9
3.174e+2, 1.505e+2, -6.293e+2, 6.471e+2, -76.6
2.588e+2, 1.884e+2, -7.505e+2, 7.737e+2, -75.9
2.148e+2, 2.401e+2, -8.931e+2, 9.248e+2, -75.0
1.758e+2, 3.090e+2, -1.057e+3, 1.102e+3, -73.7
1.465e+2, 3.983e+2, -1.240e+3, 1.302e+3, -72.2
1.221e+2, 5.247e+2, -1.454e+3, 1.546e+3, -70.2
9.766e+1, 6.890e+2, -1.690e+3, 1.825e+3, -67.8
8.254e+1, 8.944e+2, -1.936e+3, 2.132e+3, -65.2
6.813e+1, 1.159e+3, -2.191e+3, 2.478e+3, -62.1
5.623e+1, 1.486e+3, -2.440e+3, 2.857e+3, -58.7
4.642e+1, 1.882e+3, -2.668e+3, 3.265e+3, -54.8
3.831e+1, 2.339e+3, -2.853e+3, 3.690e+3, -50.7
3.162e+1, 2.844e+3, -2.977e+3, 4.117e+3, -46.3
2.610e+1, 3.372e+3, -3.025e+3, 4.530e+3, -41.9
2.154e+1, 3.898e+3, -2.993e+3, 4.915e+3, -37.5
1.778e+1, 4.398e+3, -2.888e+3, 5.262e+3, -33.3
1.468e+1, 4.852e+3, -2.725e+3, 5.565e+3, -29.3
1.212e+1, 5.249e+3, -2.523e+3, 5.824e+3, -25.7
1.000e+1, 5.567e+3, -2.290e+3, 6.020e+3, -22.4
8.254e+0, 5.827e+3, -2.056e+3, 6.179e+3, -19.4
6.813e+0, 6.054e+3, -1.847e+3, 6.329e+3, -17.0
5.623e+0, 6.246e+3, -1.661e+3, 6.463e+3, -14.9
4.642e+0, 6.411e+3, -1.497e+3, 6.584e+3, -13.1
3.831e+0, 6.554e+3, -1.337e+3, 6.689e+3, -11.5
3.162e+0, 6.670e+3, -1.202e+3, 6.777e+3, -10.2
2.610e+0, 6.762e+3, -1.107e+3, 6.852e+3, -9.3
2.154e+0, 6.858e+3, -1.035e+3, 6.935e+3, -8.6
1.778e+0, 6.955e+3, -9.799e+2, 7.023e+3, -8.0
1.468e+0, 7.045e+3, -9.400e+2, 7.108e+3, -7.6
1.212e+0, 7.131e+3, -9.154e+2, 7.189e+3, -7.3
1.000e+0, 7.223e+3, -9.044e+2, 7.279e+3, -7.1
8.254e-1, 7.310e+3, -9.134e+2, 7.367e+3, -7.1
6.813e-1, 7.387e+3, -9.435e+2, 7.447e+3, -7.3
5.623e-1, 7.469e+3, -9.888e+2, 7.534e+3, -7.5
4.642e-1, 7.559e+3, -1.046e+3, 7.631e+3, -7.9
3.831e-1, 7.661e+3, -1.112e+3, 7.742e+3, -8.3
3.162e-1, 7.776e+3, -1.188e+3, 7.866e+3, -8.7
2.610e-1, 7.904e+3, -1.276e+3, 8.006e+3, -9.2
2.154e-1, 8.049e+3, -1.375e+3, 8.166e+3, -9.7
1.778e-1, 8.209e+3, -1.488e+3, 8.343e+3, -10.3
1.468e-1, 8.387e+3, -1.616e+3, 8.541e+3, -10.9
1.212e-1, 8.592e+3, -1.763e+3, 8.771e+3, -11.6
1.000e-1, 8.824e+3, -1.928e+3, 9.032e+3, -12.3
