May 18, 2026   16:03:39
Cyclic Voltammetry
File: 200mv_s.bin
Data Source:  Experiment
Instrument Model:  CHI660D
Header: 
Note: 

Init E (V) = 0.6
High E (V) = 0.6
Low E (V) = 0
Init P/N = N
Scan Rate (V/s) = 0.2
Segment = 2
Sample Interval (V) = 0.001
Quiet Time (sec) = 2
Sensitivity (A/V) = 1e-5

Segment 1:
Ep = 0.175V
Eh = 0.239V
ip = 8.834e-5A
Ah = 3.083e-5C

Segment 2:
Ep = 0.255V
Eh = 0.194V
ip = -7.647e-5A
Ah = -2.505e-5C

Potential/V, Current/A, Charge/C, Time/s

Segment 1:
0.600, -3.763e-6, -1.882e-8, 5.000e-3
0.599, -3.419e-6, -3.591e-8, 1.000e-2
0.598, -3.385e-6, -5.284e-8, 1.500e-2
0.597, -3.346e-6, -6.957e-8, 2.000e-2
0.596, -3.270e-6, -8.592e-8, 2.500e-2
0.595, -3.228e-6, -1.021e-7, 3.000e-2
0.594, -3.234e-6, -1.182e-7, 3.500e-2
0.593, -3.205e-6, -1.342e-7, 4.000e-2
0.592, -3.154e-6, -1.500e-7, 4.500e-2
0.591, -3.119e-6, -1.656e-7, 5.000e-2
0.590, -3.123e-6, -1.812e-7, 5.500e-2
0.589, -3.116e-6, -1.968e-7, 6.000e-2
0.588, -3.055e-6, -2.121e-7, 6.500e-2
0.587, -3.028e-6, -2.272e-7, 7.000e-2
0.586, -3.037e-6, -2.424e-7, 7.500e-2
0.585, -3.023e-6, -2.575e-7, 8.000e-2
0.584, -2.973e-6, -2.724e-7, 8.500e-2
0.583, -2.947e-6, -2.871e-7, 9.000e-2
0.582, -2.954e-6, -3.019e-7, 9.500e-2
0.581, -2.955e-6, -3.167e-7, 1.000e-1
0.580, -2.896e-6, -3.312e-7, 1.050e-1
0.579, -2.873e-6, -3.455e-7, 1.100e-1
0.578, -2.891e-6, -3.600e-7, 1.150e-1
0.577, -2.877e-6, -3.744e-7, 1.200e-1
0.576, -2.826e-6, -3.885e-7, 1.250e-1
0.575, -2.806e-6, -4.025e-7, 1.300e-1
0.574, -2.824e-6, -4.166e-7, 1.350e-1
0.573, -2.817e-6, -4.307e-7, 1.400e-1
0.572, -2.764e-6, -4.445e-7, 1.450e-1
0.571, -2.745e-6, -4.583e-7, 1.500e-1
0.570, -2.757e-6, -4.720e-7, 1.550e-1
0.569, -2.752e-6, -4.858e-7, 1.600e-1
0.568, -2.708e-6, -4.993e-7, 1.650e-1
0.567, -2.689e-6, -5.128e-7, 1.700e-1
0.566, -2.698e-6, -5.263e-7, 1.750e-1
0.565, -2.699e-6, -5.398e-7, 1.800e-1
0.564, -2.651e-6, -5.530e-7, 1.850e-1
0.563, -2.639e-6, -5.662e-7, 1.900e-1
0.562, -2.651e-6, -5.795e-7, 1.950e-1
0.561, -2.641e-6, -5.927e-7, 2.000e-1
0.560, -2.599e-6, -6.057e-7, 2.050e-1
0.559, -2.572e-6, -6.185e-7, 2.100e-1
0.558, -2.599e-6, -6.315e-7, 2.150e-1
0.557, -2.587e-6, -6.445e-7, 2.200e-1
0.556, -2.543e-6, -6.572e-7, 2.250e-1
0.555, -2.529e-6, -6.698e-7, 2.300e-1
0.554, -2.547e-6, -6.826e-7, 2.350e-1
0.553, -2.539e-6, -6.953e-7, 2.400e-1
0.552, -2.491e-6, -7.077e-7, 2.450e-1
0.551, -2.475e-6, -7.201e-7, 2.500e-1
0.550, -2.494e-6, -7.326e-7, 2.550e-1
0.549, -2.493e-6, -7.450e-7, 2.600e-1
0.548, -2.441e-6, -7.572e-7, 2.650e-1
0.547, -2.428e-6, -7.694e-7, 2.700e-1
0.546, -2.453e-6, -7.816e-7, 2.750e-1
0.545, -2.443e-6, -7.939e-7, 2.800e-1
0.544, -2.400e-6, -8.059e-7, 2.850e-1
0.543, -2.379e-6, -8.178e-7, 2.900e-1
0.542, -2.402e-6, -8.298e-7, 2.950e-1
0.541, -2.404e-6, -8.418e-7, 3.000e-1
0.540, -2.352e-6, -8.535e-7, 3.050e-1
0.539, -2.343e-6, -8.653e-7, 3.100e-1
0.538, -2.362e-6, -8.771e-7, 3.150e-1
0.537, -2.359e-6, -8.889e-7, 3.200e-1
0.536, -2.315e-6, -9.004e-7, 3.250e-1
0.535, -2.292e-6, -9.119e-7, 3.300e-1
0.534, -2.317e-6, -9.235e-7, 3.350e-1
0.533, -2.317e-6, -9.351e-7, 3.400e-1
0.532, -2.270e-6, -9.464e-7, 3.450e-1
0.531, -2.256e-6, -9.577e-7, 3.500e-1
0.530, -2.275e-6, -9.691e-7, 3.550e-1
0.529, -2.267e-6, -9.804e-7, 3.600e-1
0.528, -2.233e-6, -9.916e-7, 3.650e-1
0.527, -2.216e-6, -1.003e-6, 3.700e-1
0.526, -2.233e-6, -1.014e-6, 3.750e-1
0.525, -2.231e-6, -1.025e-6, 3.800e-1
0.524, -2.190e-6, -1.036e-6, 3.850e-1
0.523, -2.176e-6, -1.047e-6, 3.900e-1
0.522, -2.198e-6, -1.058e-6, 3.950e-1
0.521, -2.186e-6, -1.069e-6, 4.000e-1
0.520, -2.162e-6, -1.080e-6, 4.050e-1
0.519, -2.131e-6, -1.090e-6, 4.100e-1
0.518, -2.157e-6, -1.101e-6, 4.150e-1
0.517, -2.156e-6, -1.112e-6, 4.200e-1
0.516, -2.109e-6, -1.122e-6, 4.250e-1
0.515, -2.104e-6, -1.133e-6, 4.300e-1
0.514, -2.122e-6, -1.143e-6, 4.350e-1
0.513, -2.120e-6, -1.154e-6, 4.400e-1
0.512, -2.073e-6, -1.164e-6, 4.450e-1
0.511, -2.060e-6, -1.175e-6, 4.500e-1
0.510, -2.084e-6, -1.185e-6, 4.550e-1
0.509, -2.081e-6, -1.196e-6, 4.600e-1
0.508, -2.041e-6, -1.206e-6, 4.650e-1
0.507, -2.023e-6, -1.216e-6, 4.700e-1
0.506, -2.053e-6, -1.226e-6, 4.750e-1
0.505, -2.044e-6, -1.236e-6, 4.800e-1
0.504, -2.005e-6, -1.246e-6, 4.850e-1
0.503, -1.989e-6, -1.256e-6, 4.900e-1
0.502, -2.016e-6, -1.266e-6, 4.950e-1
0.501, -2.008e-6, -1.276e-6, 5.000e-1
0.500, -1.965e-6, -1.286e-6, 5.050e-1
0.499, -1.957e-6, -1.296e-6, 5.100e-1
0.498, -1.978e-6, -1.306e-6, 5.150e-1
0.497, -1.975e-6, -1.316e-6, 5.200e-1
0.496, -1.937e-6, -1.325e-6, 5.250e-1
0.495, -1.924e-6, -1.335e-6, 5.300e-1
0.494, -1.946e-6, -1.345e-6, 5.350e-1
0.493, -1.939e-6, -1.355e-6, 5.400e-1
0.492, -1.905e-6, -1.364e-6, 5.450e-1
0.491, -1.886e-6, -1.373e-6, 5.500e-1
0.490, -1.915e-6, -1.383e-6, 5.550e-1
0.489, -1.909e-6, -1.393e-6, 5.600e-1
0.488, -1.869e-6, -1.402e-6, 5.650e-1
0.487, -1.857e-6, -1.411e-6, 5.700e-1
0.486, -1.880e-6, -1.421e-6, 5.750e-1
0.485, -1.879e-6, -1.430e-6, 5.800e-1
0.484, -1.837e-6, -1.439e-6, 5.850e-1
0.483, -1.823e-6, -1.448e-6, 5.900e-1
0.482, -1.848e-6, -1.458e-6, 5.950e-1
0.481, -1.841e-6, -1.467e-6, 6.000e-1
0.480, -1.807e-6, -1.476e-6, 6.050e-1
0.479, -1.792e-6, -1.485e-6, 6.100e-1
0.478, -1.812e-6, -1.494e-6, 6.150e-1
0.477, -1.814e-6, -1.503e-6, 6.200e-1
0.476, -1.769e-6, -1.512e-6, 6.250e-1
0.475, -1.759e-6, -1.521e-6, 6.300e-1
0.474, -1.783e-6, -1.529e-6, 6.350e-1
0.473, -1.779e-6, -1.538e-6, 6.400e-1
0.472, -1.743e-6, -1.547e-6, 6.450e-1
0.471, -1.726e-6, -1.556e-6, 6.500e-1
0.470, -1.753e-6, -1.564e-6, 6.550e-1
0.469, -1.751e-6, -1.573e-6, 6.600e-1
0.468, -1.706e-6, -1.582e-6, 6.650e-1
0.467, -1.696e-6, -1.590e-6, 6.700e-1
0.466, -1.721e-6, -1.599e-6, 6.750e-1
0.465, -1.716e-6, -1.607e-6, 6.800e-1
0.464, -1.683e-6, -1.616e-6, 6.850e-1
0.463, -1.662e-6, -1.624e-6, 6.900e-1
0.462, -1.690e-6, -1.633e-6, 6.950e-1
0.461, -1.698e-6, -1.641e-6, 7.000e-1
0.460, -1.647e-6, -1.649e-6, 7.050e-1
0.459, -1.636e-6, -1.657e-6, 7.100e-1
0.458, -1.658e-6, -1.666e-6, 7.150e-1
0.457, -1.657e-6, -1.674e-6, 7.200e-1
0.456, -1.619e-6, -1.682e-6, 7.250e-1
0.455, -1.601e-6, -1.690e-6, 7.300e-1
0.454, -1.624e-6, -1.698e-6, 7.350e-1
0.453, -1.628e-6, -1.706e-6, 7.400e-1
0.452, -1.587e-6, -1.714e-6, 7.450e-1
0.451, -1.571e-6, -1.722e-6, 7.500e-1
0.450, -1.597e-6, -1.730e-6, 7.550e-1
0.449, -1.585e-6, -1.738e-6, 7.600e-1
0.448, -1.558e-6, -1.746e-6, 7.650e-1
0.447, -1.542e-6, -1.754e-6, 7.700e-1
0.446, -1.561e-6, -1.761e-6, 7.750e-1
0.445, -1.562e-6, -1.769e-6, 7.800e-1
0.444, -1.518e-6, -1.777e-6, 7.850e-1
0.443, -1.512e-6, -1.784e-6, 7.900e-1
0.442, -1.534e-6, -1.792e-6, 7.950e-1
0.441, -1.521e-6, -1.800e-6, 8.000e-1
0.440, -1.490e-6, -1.807e-6, 8.050e-1
0.439, -1.479e-6, -1.814e-6, 8.100e-1
0.438, -1.499e-6, -1.822e-6, 8.150e-1
0.437, -1.499e-6, -1.829e-6, 8.200e-1
0.436, -1.455e-6, -1.837e-6, 8.250e-1
0.435, -1.443e-6, -1.844e-6, 8.300e-1
0.434, -1.471e-6, -1.851e-6, 8.350e-1
0.433, -1.459e-6, -1.859e-6, 8.400e-1
0.432, -1.420e-6, -1.866e-6, 8.450e-1
0.431, -1.406e-6, -1.873e-6, 8.500e-1
0.430, -1.437e-6, -1.880e-6, 8.550e-1
0.429, -1.429e-6, -1.887e-6, 8.600e-1
0.428, -1.387e-6, -1.894e-6, 8.650e-1
0.427, -1.376e-6, -1.901e-6, 8.700e-1
0.426, -1.393e-6, -1.908e-6, 8.750e-1
0.425, -1.395e-6, -1.915e-6, 8.800e-1
0.424, -1.355e-6, -1.922e-6, 8.850e-1
0.423, -1.334e-6, -1.928e-6, 8.900e-1
0.422, -1.358e-6, -1.935e-6, 8.950e-1
0.421, -1.357e-6, -1.942e-6, 9.000e-1
0.420, -1.319e-6, -1.948e-6, 9.050e-1
0.419, -1.299e-6, -1.955e-6, 9.100e-1
0.418, -1.327e-6, -1.962e-6, 9.150e-1
0.417, -1.313e-6, -1.968e-6, 9.200e-1
0.416, -1.276e-6, -1.975e-6, 9.250e-1
0.415, -1.264e-6, -1.981e-6, 9.300e-1
0.414, -1.282e-6, -1.987e-6, 9.350e-1
0.413, -1.270e-6, -1.994e-6, 9.400e-1
0.412, -1.236e-6, -2.000e-6, 9.450e-1
0.411, -1.223e-6, -2.006e-6, 9.500e-1
0.410, -1.291e-6, -2.012e-6, 9.550e-1
0.409, -1.243e-6, -2.019e-6, 9.600e-1
0.408, -1.198e-6, -2.025e-6, 9.650e-1
0.407, -1.180e-6, -2.030e-6, 9.700e-1
0.406, -1.202e-6, -2.036e-6, 9.750e-1
0.405, -1.189e-6, -2.042e-6, 9.800e-1
0.404, -1.143e-6, -2.048e-6, 9.850e-1
0.403, -1.135e-6, -2.054e-6, 9.900e-1
0.402, -1.153e-6, -2.060e-6, 9.950e-1
0.401, -1.139e-6, -2.065e-6, 1.000e+0
0.400, -1.104e-6, -2.071e-6, 1.005e+0
0.399, -1.082e-6, -2.076e-6, 1.010e+0
0.398, -1.103e-6, -2.082e-6, 1.015e+0
0.397, -1.094e-6, -2.087e-6, 1.020e+0
0.396, -1.042e-6, -2.092e-6, 1.025e+0
0.395, -1.026e-6, -2.098e-6, 1.030e+0
0.394, -1.047e-6, -2.103e-6, 1.035e+0
0.393, -1.030e-6, -2.108e-6, 1.040e+0
0.392, -9.963e-7, -2.113e-6, 1.045e+0
0.391, -9.694e-7, -2.118e-6, 1.050e+0
0.390, -9.807e-7, -2.123e-6, 1.055e+0
0.389, -9.794e-7, -2.128e-6, 1.060e+0
0.388, -9.253e-7, -2.132e-6, 1.065e+0
0.387, -9.054e-7, -2.137e-6, 1.070e+0
0.386, -9.205e-7, -2.141e-6, 1.075e+0
0.385, -9.108e-7, -2.146e-6, 1.080e+0
0.384, -8.633e-7, -2.150e-6, 1.085e+0
0.383, -8.347e-7, -2.154e-6, 1.090e+0
0.382, -8.500e-7, -2.159e-6, 1.095e+0
0.381, -8.392e-7, -2.163e-6, 1.100e+0
0.380, -7.824e-7, -2.167e-6, 1.105e+0
0.379, -7.624e-7, -2.171e-6, 1.110e+0
0.378, -7.671e-7, -2.174e-6, 1.115e+0
0.377, -7.532e-7, -2.178e-6, 1.120e+0
0.376, -7.043e-7, -2.182e-6, 1.125e+0
0.375, -6.668e-7, -2.185e-6, 1.130e+0
0.374, -6.836e-7, -2.188e-6, 1.135e+0
0.373, -6.665e-7, -2.192e-6, 1.140e+0
0.372, -6.074e-7, -2.195e-6, 1.145e+0
0.371, -5.714e-7, -2.198e-6, 1.150e+0
0.370, -5.904e-7, -2.201e-6, 1.155e+0
0.369, -5.581e-7, -2.203e-6, 1.160e+0
0.368, -5.038e-7, -2.206e-6, 1.165e+0
0.367, -4.659e-7, -2.208e-6, 1.170e+0
0.366, -4.792e-7, -2.211e-6, 1.175e+0
0.365, -4.500e-7, -2.213e-6, 1.180e+0
0.364, -3.860e-7, -2.215e-6, 1.185e+0
0.363, -3.469e-7, -2.217e-6, 1.190e+0
0.362, -3.530e-7, -2.218e-6, 1.195e+0
0.361, -3.246e-7, -2.220e-6, 1.200e+0
0.360, -2.583e-7, -2.221e-6, 1.205e+0
0.359, -2.216e-7, -2.222e-6, 1.210e+0
0.358, -2.160e-7, -2.223e-6, 1.215e+0
0.357, -1.846e-7, -2.224e-6, 1.220e+0
0.356, -1.091e-7, -2.225e-6, 1.225e+0
0.355, -5.788e-8, -2.225e-6, 1.230e+0
0.354, -5.312e-8, -2.225e-6, 1.235e+0
0.353, -1.718e-8, -2.225e-6, 1.240e+0
0.352, 6.143e-8, -2.225e-6, 1.245e+0
0.351, 1.117e-7, -2.225e-6, 1.250e+0
0.350, 1.252e-7, -2.224e-6, 1.255e+0
0.349, 1.610e-7, -2.223e-6, 1.260e+0
0.348, 2.487e-7, -2.222e-6, 1.265e+0
0.347, 3.113e-7, -2.220e-6, 1.270e+0
0.346, 3.333e-7, -2.219e-6, 1.275e+0
0.345, 3.824e-7, -2.217e-6, 1.280e+0
0.344, 4.621e-7, -2.214e-6, 1.285e+0
0.343, 5.385e-7, -2.212e-6, 1.290e+0
0.342, 5.654e-7, -2.209e-6, 1.295e+0
0.341, 6.209e-7, -2.206e-6, 1.300e+0
0.340, 7.160e-7, -2.202e-6, 1.305e+0
0.339, 7.994e-7, -2.198e-6, 1.310e+0
0.338, 8.336e-7, -2.194e-6, 1.315e+0
0.337, 8.946e-7, -2.190e-6, 1.320e+0
0.336, 9.968e-7, -2.185e-6, 1.325e+0
0.335, 1.094e-6, -2.179e-6, 1.330e+0
0.334, 1.138e-6, -2.174e-6, 1.335e+0
0.333, 1.198e-6, -2.168e-6, 1.340e+0
0.332, 1.322e-6, -2.161e-6, 1.345e+0
0.331, 1.429e-6, -2.154e-6, 1.350e+0
0.330, 1.481e-6, -2.146e-6, 1.355e+0
0.329, 1.573e-6, -2.138e-6, 1.360e+0
0.328, 1.692e-6, -2.130e-6, 1.365e+0
0.327, 1.824e-6, -2.121e-6, 1.370e+0
0.326, 1.885e-6, -2.111e-6, 1.375e+0
0.325, 1.969e-6, -2.102e-6, 1.380e+0
0.324, 2.132e-6, -2.091e-6, 1.385e+0
0.323, 2.266e-6, -2.080e-6, 1.390e+0
0.322, 2.351e-6, -2.068e-6, 1.395e+0
0.321, 2.450e-6, -2.056e-6, 1.400e+0
0.320, 2.619e-6, -2.043e-6, 1.405e+0
0.319, 2.781e-6, -2.029e-6, 1.410e+0
0.318, 2.871e-6, -2.014e-6, 1.415e+0
0.317, 2.996e-6, -1.999e-6, 1.420e+0
0.316, 3.183e-6, -1.983e-6, 1.425e+0
0.315, 3.359e-6, -1.967e-6, 1.430e+0
0.314, 3.484e-6, -1.949e-6, 1.435e+0
0.313, 3.614e-6, -1.931e-6, 1.440e+0
0.312, 3.820e-6, -1.912e-6, 1.445e+0
0.311, 4.037e-6, -1.892e-6, 1.450e+0
0.310, 4.170e-6, -1.871e-6, 1.455e+0
0.309, 4.327e-6, -1.849e-6, 1.460e+0
0.308, 4.564e-6, -1.827e-6, 1.465e+0
0.307, 4.800e-6, -1.803e-6, 1.470e+0
0.306, 4.967e-6, -1.778e-6, 1.475e+0
0.305, 5.150e-6, -1.752e-6, 1.480e+0
0.304, 5.404e-6, -1.725e-6, 1.485e+0
0.303, 5.673e-6, -1.697e-6, 1.490e+0
0.302, 5.858e-6, -1.667e-6, 1.495e+0
0.301, 6.067e-6, -1.637e-6, 1.500e+0
0.300, 6.371e-6, -1.605e-6, 1.505e+0
0.299, 6.661e-6, -1.572e-6, 1.510e+0
0.298, 6.898e-6, -1.537e-6, 1.515e+0
0.297, 7.119e-6, -1.502e-6, 1.520e+0
0.296, 7.453e-6, -1.464e-6, 1.525e+0
0.295, 7.796e-6, -1.425e-6, 1.530e+0
0.294, 8.056e-6, -1.385e-6, 1.535e+0
0.293, 8.331e-6, -1.343e-6, 1.540e+0
0.292, 8.696e-6, -1.300e-6, 1.545e+0
0.291, 9.080e-6, -1.255e-6, 1.550e+0
0.290, 9.377e-6, -1.208e-6, 1.555e+0
0.289, 9.684e-6, -1.159e-6, 1.560e+0
0.288, 1.009e-5, -1.109e-6, 1.565e+0
0.287, 1.053e-5, -1.056e-6, 1.570e+0
0.286, 1.087e-5, -1.002e-6, 1.575e+0
0.285, 1.122e-5, -9.457e-7, 1.580e+0
0.284, 1.169e-5, -8.873e-7, 1.585e+0
0.283, 1.217e-5, -8.264e-7, 1.590e+0
0.282, 1.255e-5, -7.637e-7, 1.595e+0
0.281, 1.294e-5, -6.990e-7, 1.600e+0
0.280, 1.344e-5, -6.318e-7, 1.605e+0
0.279, 1.400e-5, -5.618e-7, 1.610e+0
0.278, 1.443e-5, -4.896e-7, 1.615e+0
0.277, 1.486e-5, -4.153e-7, 1.620e+0
0.276, 1.545e-5, -3.380e-7, 1.625e+0
0.275, 1.604e-5, -2.578e-7, 1.630e+0
0.274, 1.651e-5, -1.753e-7, 1.635e+0
0.273, 1.702e-5, -9.019e-8, 1.640e+0
0.272, 1.764e-5, -1.996e-9, 1.645e+0
0.271, 1.831e-5, 8.955e-8, 1.650e+0
0.270, 1.884e-5, 1.838e-7, 1.655e+0
0.269, 1.938e-5, 2.807e-7, 1.660e+0
0.268, 2.010e-5, 3.812e-7, 1.665e+0
0.267, 2.082e-5, 4.853e-7, 1.670e+0
0.266, 2.145e-5, 5.926e-7, 1.675e+0
0.265, 2.203e-5, 7.027e-7, 1.680e+0
0.264, 2.275e-5, 8.165e-7, 1.685e+0
0.263, 2.358e-5, 9.344e-7, 1.690e+0
0.262, 2.423e-5, 1.056e-6, 1.695e+0
0.261, 2.487e-5, 1.180e-6, 1.700e+0
0.260, 2.568e-5, 1.308e-6, 1.705e+0
0.259, 2.658e-5, 1.441e-6, 1.710e+0
0.258, 2.731e-5, 1.578e-6, 1.715e+0
0.257, 2.800e-5, 1.718e-6, 1.720e+0
0.256, 2.882e-5, 1.862e-6, 1.725e+0
0.255, 2.979e-5, 2.011e-6, 1.730e+0
0.254, 3.057e-5, 2.164e-6, 1.735e+0
0.253, 3.130e-5, 2.320e-6, 1.740e+0
0.252, 3.225e-5, 2.481e-6, 1.745e+0
0.251, 3.327e-5, 2.648e-6, 1.750e+0
0.250, 3.412e-5, 2.818e-6, 1.755e+0
0.249, 3.492e-5, 2.993e-6, 1.760e+0
0.248, 3.589e-5, 3.172e-6, 1.765e+0
0.247, 3.696e-5, 3.357e-6, 1.770e+0
0.246, 3.785e-5, 3.546e-6, 1.775e+0
0.245, 3.866e-5, 3.740e-6, 1.780e+0
0.244, 3.975e-5, 3.938e-6, 1.785e+0
0.243, 4.087e-5, 4.143e-6, 1.790e+0
0.242, 4.177e-5, 4.352e-6, 1.795e+0
0.241, 4.264e-5, 4.565e-6, 1.800e+0
0.240, 4.372e-5, 4.783e-6, 1.805e+0
0.239, 4.493e-5, 5.008e-6, 1.810e+0
0.238, 4.585e-5, 5.237e-6, 1.815e+0
0.237, 4.675e-5, 5.471e-6, 1.820e+0
0.236, 4.788e-5, 5.710e-6, 1.825e+0
0.235, 4.905e-5, 5.956e-6, 1.830e+0
0.234, 5.002e-5, 6.206e-6, 1.835e+0
0.233, 5.093e-5, 6.460e-6, 1.840e+0
0.232, 5.206e-5, 6.721e-6, 1.845e+0
0.231, 5.329e-5, 6.987e-6, 1.850e+0
0.230, 5.425e-5, 7.258e-6, 1.855e+0
0.229, 5.516e-5, 7.534e-6, 1.860e+0
0.228, 5.631e-5, 7.816e-6, 1.865e+0
0.227, 5.754e-5, 8.103e-6, 1.870e+0
0.226, 5.850e-5, 8.396e-6, 1.875e+0
0.225, 5.940e-5, 8.693e-6, 1.880e+0
0.224, 6.051e-5, 8.995e-6, 1.885e+0
0.223, 6.176e-5, 9.304e-6, 1.890e+0
0.222, 6.272e-5, 9.618e-6, 1.895e+0
0.221, 6.355e-5, 9.936e-6, 1.900e+0
0.220, 6.464e-5, 1.026e-5, 1.905e+0
0.219, 6.583e-5, 1.059e-5, 1.910e+0
0.218, 6.677e-5, 1.092e-5, 1.915e+0
0.217, 6.761e-5, 1.126e-5, 1.920e+0
0.216, 6.861e-5, 1.160e-5, 1.925e+0
0.215, 6.977e-5, 1.195e-5, 1.930e+0
0.214, 7.063e-5, 1.230e-5, 1.935e+0
0.213, 7.138e-5, 1.266e-5, 1.940e+0
0.212, 7.234e-5, 1.302e-5, 1.945e+0
0.211, 7.343e-5, 1.339e-5, 1.950e+0
0.210, 7.422e-5, 1.376e-5, 1.955e+0
0.209, 7.491e-5, 1.414e-5, 1.960e+0
0.208, 7.583e-5, 1.452e-5, 1.965e+0
0.207, 7.681e-5, 1.490e-5, 1.970e+0
0.206, 7.751e-5, 1.529e-5, 1.975e+0
0.205, 7.823e-5, 1.568e-5, 1.980e+0
0.204, 7.907e-5, 1.607e-5, 1.985e+0
0.203, 7.991e-5, 1.647e-5, 1.990e+0
0.202, 8.053e-5, 1.688e-5, 1.995e+0
0.201, 8.104e-5, 1.728e-5, 2.000e+0
0.200, 8.172e-5, 1.769e-5, 2.005e+0
0.199, 8.254e-5, 1.810e-5, 2.010e+0
0.198, 8.307e-5, 1.852e-5, 2.015e+0
0.197, 8.346e-5, 1.893e-5, 2.020e+0
0.196, 8.407e-5, 1.936e-5, 2.025e+0
0.195, 8.472e-5, 1.978e-5, 2.030e+0
0.194, 8.512e-5, 2.020e-5, 2.035e+0
0.193, 8.541e-5, 2.063e-5, 2.040e+0
0.192, 8.590e-5, 2.106e-5, 2.045e+0
0.191, 8.647e-5, 2.149e-5, 2.050e+0
0.190, 8.677e-5, 2.193e-5, 2.055e+0
0.189, 8.692e-5, 2.236e-5, 2.060e+0
0.188, 8.735e-5, 2.280e-5, 2.065e+0
0.187, 8.777e-5, 2.324e-5, 2.070e+0
0.186, 8.798e-5, 2.368e-5, 2.075e+0
0.185, 8.808e-5, 2.412e-5, 2.080e+0
0.184, 8.835e-5, 2.456e-5, 2.085e+0
0.183, 8.867e-5, 2.500e-5, 2.090e+0
0.182, 8.877e-5, 2.545e-5, 2.095e+0
0.181, 8.873e-5, 2.589e-5, 2.100e+0
0.180, 8.891e-5, 2.633e-5, 2.105e+0
0.179, 8.909e-5, 2.678e-5, 2.110e+0
0.178, 8.906e-5, 2.723e-5, 2.115e+0
0.177, 8.897e-5, 2.767e-5, 2.120e+0
0.176, 8.904e-5, 2.812e-5, 2.125e+0
0.175, 8.917e-5, 2.856e-5, 2.130e+0
0.174, 8.906e-5, 2.901e-5, 2.135e+0
0.173, 8.889e-5, 2.945e-5, 2.140e+0
0.172, 8.889e-5, 2.990e-5, 2.145e+0
0.171, 8.888e-5, 3.034e-5, 2.150e+0
0.170, 8.870e-5, 3.078e-5, 2.155e+0
0.169, 8.845e-5, 3.123e-5, 2.160e+0
0.168, 8.834e-5, 3.167e-5, 2.165e+0
0.167, 8.828e-5, 3.211e-5, 2.170e+0
0.166, 8.804e-5, 3.255e-5, 2.175e+0
0.165, 8.772e-5, 3.299e-5, 2.180e+0
0.164, 8.756e-5, 3.343e-5, 2.185e+0
0.163, 8.742e-5, 3.386e-5, 2.190e+0
0.162, 8.712e-5, 3.430e-5, 2.195e+0
0.161, 8.677e-5, 3.473e-5, 2.200e+0
0.160, 8.656e-5, 3.516e-5, 2.205e+0
0.159, 8.637e-5, 3.560e-5, 2.210e+0
0.158, 8.601e-5, 3.603e-5, 2.215e+0
0.157, 8.559e-5, 3.645e-5, 2.220e+0
0.156, 8.535e-5, 3.688e-5, 2.225e+0
0.155, 8.510e-5, 3.731e-5, 2.230e+0
0.154, 8.469e-5, 3.773e-5, 2.235e+0
0.153, 8.425e-5, 3.815e-5, 2.240e+0
0.152, 8.398e-5, 3.857e-5, 2.245e+0
0.151, 8.370e-5, 3.899e-5, 2.250e+0
0.150, 8.328e-5, 3.941e-5, 2.255e+0
0.149, 8.285e-5, 3.982e-5, 2.260e+0
0.148, 8.255e-5, 4.023e-5, 2.265e+0
0.147, 8.225e-5, 4.064e-5, 2.270e+0
0.146, 8.180e-5, 4.105e-5, 2.275e+0
0.145, 8.136e-5, 4.146e-5, 2.280e+0
0.144, 8.102e-5, 4.187e-5, 2.285e+0
0.143, 8.070e-5, 4.227e-5, 2.290e+0
0.142, 8.025e-5, 4.267e-5, 2.295e+0
0.141, 7.980e-5, 4.307e-5, 2.300e+0
0.140, 7.947e-5, 4.347e-5, 2.305e+0
0.139, 7.912e-5, 4.386e-5, 2.310e+0
0.138, 7.867e-5, 4.426e-5, 2.315e+0
0.137, 7.823e-5, 4.465e-5, 2.320e+0
0.136, 7.788e-5, 4.504e-5, 2.325e+0
0.135, 7.754e-5, 4.542e-5, 2.330e+0
0.134, 7.710e-5, 4.581e-5, 2.335e+0
0.133, 7.665e-5, 4.619e-5, 2.340e+0
0.132, 7.631e-5, 4.657e-5, 2.345e+0
0.131, 7.596e-5, 4.695e-5, 2.350e+0
0.130, 7.551e-5, 4.733e-5, 2.355e+0
0.129, 7.509e-5, 4.771e-5, 2.360e+0
0.128, 7.474e-5, 4.808e-5, 2.365e+0
0.127, 7.440e-5, 4.845e-5, 2.370e+0
0.126, 7.396e-5, 4.882e-5, 2.375e+0
0.125, 7.355e-5, 4.919e-5, 2.380e+0
0.124, 7.322e-5, 4.956e-5, 2.385e+0
0.123, 7.287e-5, 4.992e-5, 2.390e+0
0.122, 7.246e-5, 5.028e-5, 2.395e+0
0.121, 7.205e-5, 5.064e-5, 2.400e+0
0.120, 7.172e-5, 5.100e-5, 2.405e+0
0.119, 7.139e-5, 5.136e-5, 2.410e+0
0.118, 7.099e-5, 5.171e-5, 2.415e+0
0.117, 7.060e-5, 5.207e-5, 2.420e+0
0.116, 7.029e-5, 5.242e-5, 2.425e+0
0.115, 6.996e-5, 5.277e-5, 2.430e+0
0.114, 6.955e-5, 5.312e-5, 2.435e+0
0.113, 6.920e-5, 5.346e-5, 2.440e+0
0.112, 6.889e-5, 5.381e-5, 2.445e+0
0.111, 6.858e-5, 5.415e-5, 2.450e+0
0.110, 6.820e-5, 5.449e-5, 2.455e+0
0.109, 6.784e-5, 5.483e-5, 2.460e+0
0.108, 6.757e-5, 5.517e-5, 2.465e+0
0.107, 6.725e-5, 5.550e-5, 2.470e+0
0.106, 6.689e-5, 5.584e-5, 2.475e+0
0.105, 6.655e-5, 5.617e-5, 2.480e+0
0.104, 6.627e-5, 5.650e-5, 2.485e+0
0.103, 6.598e-5, 5.683e-5, 2.490e+0
0.102, 6.564e-5, 5.716e-5, 2.495e+0
0.101, 6.531e-5, 5.749e-5, 2.500e+0
0.100, 6.505e-5, 5.781e-5, 2.505e+0
0.099, 6.477e-5, 5.814e-5, 2.510e+0
0.098, 6.444e-5, 5.846e-5, 2.515e+0
0.097, 6.413e-5, 5.878e-5, 2.520e+0
0.096, 6.388e-5, 5.910e-5, 2.525e+0
0.095, 6.362e-5, 5.942e-5, 2.530e+0
0.094, 6.330e-5, 5.973e-5, 2.535e+0
0.093, 6.299e-5, 6.005e-5, 2.540e+0
0.092, 6.277e-5, 6.036e-5, 2.545e+0
0.091, 6.251e-5, 6.067e-5, 2.550e+0
0.090, 6.220e-5, 6.098e-5, 2.555e+0
0.089, 6.193e-5, 6.129e-5, 2.560e+0
0.088, 6.170e-5, 6.160e-5, 2.565e+0
0.087, 6.146e-5, 6.191e-5, 2.570e+0
0.086, 6.118e-5, 6.222e-5, 2.575e+0
0.085, 6.090e-5, 6.252e-5, 2.580e+0
0.084, 6.069e-5, 6.282e-5, 2.585e+0
0.083, 6.047e-5, 6.313e-5, 2.590e+0
0.082, 6.018e-5, 6.343e-5, 2.595e+0
0.081, 5.993e-5, 6.373e-5, 2.600e+0
0.080, 5.972e-5, 6.403e-5, 2.605e+0
0.079, 5.950e-5, 6.432e-5, 2.610e+0
0.078, 5.924e-5, 6.462e-5, 2.615e+0
0.077, 5.900e-5, 6.491e-5, 2.620e+0
0.076, 5.881e-5, 6.521e-5, 2.625e+0
0.075, 5.860e-5, 6.550e-5, 2.630e+0
0.074, 5.835e-5, 6.579e-5, 2.635e+0
0.073, 5.813e-5, 6.608e-5, 2.640e+0
0.072, 5.794e-5, 6.637e-5, 2.645e+0
0.071, 5.775e-5, 6.666e-5, 2.650e+0
0.070, 5.751e-5, 6.695e-5, 2.655e+0
0.069, 5.729e-5, 6.724e-5, 2.660e+0
0.068, 5.713e-5, 6.752e-5, 2.665e+0
0.067, 5.693e-5, 6.781e-5, 2.670e+0
0.066, 5.670e-5, 6.809e-5, 2.675e+0
0.065, 5.650e-5, 6.837e-5, 2.680e+0
0.064, 5.634e-5, 6.865e-5, 2.685e+0
0.063, 5.616e-5, 6.894e-5, 2.690e+0
0.062, 5.594e-5, 6.921e-5, 2.695e+0
0.061, 5.574e-5, 6.949e-5, 2.700e+0
0.060, 5.560e-5, 6.977e-5, 2.705e+0
0.059, 5.542e-5, 7.005e-5, 2.710e+0
0.058, 5.521e-5, 7.032e-5, 2.715e+0
0.057, 5.503e-5, 7.060e-5, 2.720e+0
0.056, 5.488e-5, 7.087e-5, 2.725e+0
0.055, 5.473e-5, 7.115e-5, 2.730e+0
0.054, 5.452e-5, 7.142e-5, 2.735e+0
0.053, 5.435e-5, 7.169e-5, 2.740e+0
0.052, 5.421e-5, 7.196e-5, 2.745e+0
0.051, 5.405e-5, 7.223e-5, 2.750e+0
0.050, 5.386e-5, 7.250e-5, 2.755e+0
0.049, 5.370e-5, 7.277e-5, 2.760e+0
0.048, 5.358e-5, 7.304e-5, 2.765e+0
0.047, 5.343e-5, 7.331e-5, 2.770e+0
0.046, 5.324e-5, 7.357e-5, 2.775e+0
0.045, 5.309e-5, 7.384e-5, 2.780e+0
0.044, 5.297e-5, 7.410e-5, 2.785e+0
0.043, 5.284e-5, 7.437e-5, 2.790e+0
0.042, 5.266e-5, 7.463e-5, 2.795e+0
0.041, 5.251e-5, 7.489e-5, 2.800e+0
0.040, 5.239e-5, 7.516e-5, 2.805e+0
0.039, 5.227e-5, 7.542e-5, 2.810e+0
0.038, 5.210e-5, 7.568e-5, 2.815e+0
0.037, 5.195e-5, 7.594e-5, 2.820e+0
0.036, 5.185e-5, 7.620e-5, 2.825e+0
0.035, 5.173e-5, 7.645e-5, 2.830e+0
0.034, 5.157e-5, 7.671e-5, 2.835e+0
0.033, 5.144e-5, 7.697e-5, 2.840e+0
0.032, 5.135e-5, 7.723e-5, 2.845e+0
0.031, 5.123e-5, 7.748e-5, 2.850e+0
0.030, 5.106e-5, 7.774e-5, 2.855e+0
0.029, 5.094e-5, 7.799e-5, 2.860e+0
0.028, 5.085e-5, 7.825e-5, 2.865e+0
0.027, 5.074e-5, 7.850e-5, 2.870e+0
0.026, 5.058e-5, 7.875e-5, 2.875e+0
0.025, 5.047e-5, 7.901e-5, 2.880e+0
0.024, 5.039e-5, 7.926e-5, 2.885e+0
0.023, 5.029e-5, 7.951e-5, 2.890e+0
0.022, 5.014e-5, 7.976e-5, 2.895e+0
0.021, 5.003e-5, 8.001e-5, 2.900e+0
0.020, 4.995e-5, 8.026e-5, 2.905e+0
0.019, 4.986e-5, 8.051e-5, 2.910e+0
0.018, 4.972e-5, 8.076e-5, 2.915e+0
0.017, 4.961e-5, 8.101e-5, 2.920e+0
0.016, 4.954e-5, 8.125e-5, 2.925e+0
0.015, 4.945e-5, 8.150e-5, 2.930e+0
0.014, 4.932e-5, 8.175e-5, 2.935e+0
0.013, 4.921e-5, 8.199e-5, 2.940e+0
0.012, 4.916e-5, 8.224e-5, 2.945e+0
0.011, 4.907e-5, 8.248e-5, 2.950e+0
0.010, 4.895e-5, 8.273e-5, 2.955e+0
0.009, 4.885e-5, 8.297e-5, 2.960e+0
0.008, 4.879e-5, 8.322e-5, 2.965e+0
0.007, 4.871e-5, 8.346e-5, 2.970e+0
0.006, 4.860e-5, 8.370e-5, 2.975e+0
0.005, 4.849e-5, 8.395e-5, 2.980e+0
0.004, 4.845e-5, 8.419e-5, 2.985e+0
0.003, 4.837e-5, 8.443e-5, 2.990e+0
0.002, 4.826e-5, 8.467e-5, 2.995e+0
0.001, 4.818e-5, 8.491e-5, 3.000e+0

Segment 2:
0.000, 4.740e-5, 8.515e-5, 3.005e+0
0.001, 4.651e-5, 8.538e-5, 3.010e+0
0.002, 4.610e-5, 8.561e-5, 3.015e+0
0.003, 4.578e-5, 8.584e-5, 3.020e+0
0.004, 4.553e-5, 8.607e-5, 3.025e+0
0.005, 4.527e-5, 8.630e-5, 3.030e+0
0.006, 4.499e-5, 8.652e-5, 3.035e+0
0.007, 4.475e-5, 8.674e-5, 3.040e+0
0.008, 4.456e-5, 8.697e-5, 3.045e+0
0.009, 4.435e-5, 8.719e-5, 3.050e+0
0.010, 4.410e-5, 8.741e-5, 3.055e+0
0.011, 4.390e-5, 8.763e-5, 3.060e+0
0.012, 4.372e-5, 8.785e-5, 3.065e+0
0.013, 4.354e-5, 8.807e-5, 3.070e+0
0.014, 4.331e-5, 8.828e-5, 3.075e+0
0.015, 4.312e-5, 8.850e-5, 3.080e+0
0.016, 4.297e-5, 8.871e-5, 3.085e+0
0.017, 4.279e-5, 8.893e-5, 3.090e+0
0.018, 4.259e-5, 8.914e-5, 3.095e+0
0.019, 4.240e-5, 8.935e-5, 3.100e+0
0.020, 4.227e-5, 8.956e-5, 3.105e+0
0.021, 4.210e-5, 8.977e-5, 3.110e+0
0.022, 4.191e-5, 8.998e-5, 3.115e+0
0.023, 4.174e-5, 9.019e-5, 3.120e+0
0.024, 4.161e-5, 9.040e-5, 3.125e+0
0.025, 4.146e-5, 9.061e-5, 3.130e+0
0.026, 4.127e-5, 9.081e-5, 3.135e+0
0.027, 4.111e-5, 9.102e-5, 3.140e+0
0.028, 4.098e-5, 9.122e-5, 3.145e+0
0.029, 4.084e-5, 9.143e-5, 3.150e+0
0.030, 4.066e-5, 9.163e-5, 3.155e+0
0.031, 4.050e-5, 9.183e-5, 3.160e+0
0.032, 4.039e-5, 9.204e-5, 3.165e+0
0.033, 4.025e-5, 9.224e-5, 3.170e+0
0.034, 4.008e-5, 9.244e-5, 3.175e+0
0.035, 3.993e-5, 9.264e-5, 3.180e+0
0.036, 3.981e-5, 9.284e-5, 3.185e+0
0.037, 3.968e-5, 9.303e-5, 3.190e+0
0.038, 3.951e-5, 9.323e-5, 3.195e+0
0.039, 3.937e-5, 9.343e-5, 3.200e+0
0.040, 3.927e-5, 9.362e-5, 3.205e+0
0.041, 3.913e-5, 9.382e-5, 3.210e+0
0.042, 3.896e-5, 9.402e-5, 3.215e+0
0.043, 3.883e-5, 9.421e-5, 3.220e+0
0.044, 3.872e-5, 9.440e-5, 3.225e+0
0.045, 3.860e-5, 9.460e-5, 3.230e+0
0.046, 3.844e-5, 9.479e-5, 3.235e+0
0.047, 3.830e-5, 9.498e-5, 3.240e+0
0.048, 3.820e-5, 9.517e-5, 3.245e+0
0.049, 3.808e-5, 9.536e-5, 3.250e+0
0.050, 3.792e-5, 9.555e-5, 3.255e+0
0.051, 3.780e-5, 9.574e-5, 3.260e+0
0.052, 3.769e-5, 9.593e-5, 3.265e+0
0.053, 3.757e-5, 9.612e-5, 3.270e+0
0.054, 3.742e-5, 9.630e-5, 3.275e+0
0.055, 3.728e-5, 9.649e-5, 3.280e+0
0.056, 3.718e-5, 9.668e-5, 3.285e+0
0.057, 3.706e-5, 9.686e-5, 3.290e+0
0.058, 3.690e-5, 9.705e-5, 3.295e+0
0.059, 3.677e-5, 9.723e-5, 3.300e+0
0.060, 3.667e-5, 9.741e-5, 3.305e+0
0.061, 3.656e-5, 9.760e-5, 3.310e+0
0.062, 3.640e-5, 9.778e-5, 3.315e+0
0.063, 3.627e-5, 9.796e-5, 3.320e+0
0.064, 3.618e-5, 9.814e-5, 3.325e+0
0.065, 3.606e-5, 9.832e-5, 3.330e+0
0.066, 3.590e-5, 9.850e-5, 3.335e+0
0.067, 3.577e-5, 9.868e-5, 3.340e+0
0.068, 3.568e-5, 9.886e-5, 3.345e+0
0.069, 3.556e-5, 9.903e-5, 3.350e+0
0.070, 3.540e-5, 9.921e-5, 3.355e+0
0.071, 3.526e-5, 9.939e-5, 3.360e+0
0.072, 3.517e-5, 9.956e-5, 3.365e+0
0.073, 3.505e-5, 9.974e-5, 3.370e+0
0.074, 3.489e-5, 9.991e-5, 3.375e+0
0.075, 3.476e-5, 1.001e-4, 3.380e+0
0.076, 3.466e-5, 1.003e-4, 3.385e+0
0.077, 3.455e-5, 1.004e-4, 3.390e+0
0.078, 3.438e-5, 1.006e-4, 3.395e+0
0.079, 3.424e-5, 1.008e-4, 3.400e+0
0.080, 3.415e-5, 1.009e-4, 3.405e+0
0.081, 3.402e-5, 1.011e-4, 3.410e+0
0.082, 3.386e-5, 1.013e-4, 3.415e+0
0.083, 3.371e-5, 1.015e-4, 3.420e+0
0.084, 3.361e-5, 1.016e-4, 3.425e+0
0.085, 3.348e-5, 1.018e-4, 3.430e+0
0.086, 3.331e-5, 1.020e-4, 3.435e+0
0.087, 3.316e-5, 1.021e-4, 3.440e+0
0.088, 3.305e-5, 1.023e-4, 3.445e+0
0.089, 3.292e-5, 1.025e-4, 3.450e+0
0.090, 3.274e-5, 1.026e-4, 3.455e+0
0.091, 3.259e-5, 1.028e-4, 3.460e+0
0.092, 3.247e-5, 1.029e-4, 3.465e+0
0.093, 3.234e-5, 1.031e-4, 3.470e+0
0.094, 3.216e-5, 1.033e-4, 3.475e+0
0.095, 3.199e-5, 1.034e-4, 3.480e+0
0.096, 3.187e-5, 1.036e-4, 3.485e+0
0.097, 3.173e-5, 1.037e-4, 3.490e+0
0.098, 3.153e-5, 1.039e-4, 3.495e+0
0.099, 3.136e-5, 1.041e-4, 3.500e+0
0.100, 3.123e-5, 1.042e-4, 3.505e+0
0.101, 3.109e-5, 1.044e-4, 3.510e+0
0.102, 3.088e-5, 1.045e-4, 3.515e+0
0.103, 3.069e-5, 1.047e-4, 3.520e+0
0.104, 3.056e-5, 1.048e-4, 3.525e+0
0.105, 3.039e-5, 1.050e-4, 3.530e+0
0.106, 3.018e-5, 1.051e-4, 3.535e+0
0.107, 2.998e-5, 1.053e-4, 3.540e+0
0.108, 2.983e-5, 1.054e-4, 3.545e+0
0.109, 2.966e-5, 1.056e-4, 3.550e+0
0.110, 2.943e-5, 1.057e-4, 3.555e+0
0.111, 2.921e-5, 1.059e-4, 3.560e+0
0.112, 2.905e-5, 1.060e-4, 3.565e+0
0.113, 2.887e-5, 1.062e-4, 3.570e+0
0.114, 2.861e-5, 1.063e-4, 3.575e+0
0.115, 2.837e-5, 1.064e-4, 3.580e+0
0.116, 2.819e-5, 1.066e-4, 3.585e+0
0.117, 2.800e-5, 1.067e-4, 3.590e+0
0.118, 2.773e-5, 1.069e-4, 3.595e+0
0.119, 2.747e-5, 1.070e-4, 3.600e+0
0.120, 2.729e-5, 1.071e-4, 3.605e+0
0.121, 2.706e-5, 1.073e-4, 3.610e+0
0.122, 2.676e-5, 1.074e-4, 3.615e+0
0.123, 2.648e-5, 1.075e-4, 3.620e+0
0.124, 2.627e-5, 1.077e-4, 3.625e+0
0.125, 2.604e-5, 1.078e-4, 3.630e+0
0.126, 2.571e-5, 1.079e-4, 3.635e+0
0.127, 2.541e-5, 1.081e-4, 3.640e+0
0.128, 2.517e-5, 1.082e-4, 3.645e+0
0.129, 2.490e-5, 1.083e-4, 3.650e+0
0.130, 2.456e-5, 1.084e-4, 3.655e+0
0.131, 2.422e-5, 1.086e-4, 3.660e+0
0.132, 2.394e-5, 1.087e-4, 3.665e+0
0.133, 2.365e-5, 1.088e-4, 3.670e+0
0.134, 2.327e-5, 1.089e-4, 3.675e+0
0.135, 2.289e-5, 1.090e-4, 3.680e+0
0.136, 2.261e-5, 1.091e-4, 3.685e+0
0.137, 2.228e-5, 1.092e-4, 3.690e+0
0.138, 2.185e-5, 1.094e-4, 3.695e+0
0.139, 2.145e-5, 1.095e-4, 3.700e+0
0.140, 2.111e-5, 1.096e-4, 3.705e+0
0.141, 2.077e-5, 1.097e-4, 3.710e+0
0.142, 2.030e-5, 1.098e-4, 3.715e+0
0.143, 1.983e-5, 1.099e-4, 3.720e+0
0.144, 1.946e-5, 1.100e-4, 3.725e+0
0.145, 1.908e-5, 1.101e-4, 3.730e+0
0.146, 1.858e-5, 1.102e-4, 3.735e+0
0.147, 1.807e-5, 1.102e-4, 3.740e+0
0.148, 1.764e-5, 1.103e-4, 3.745e+0
0.149, 1.723e-5, 1.104e-4, 3.750e+0
0.150, 1.667e-5, 1.105e-4, 3.755e+0
0.151, 1.610e-5, 1.106e-4, 3.760e+0
0.152, 1.566e-5, 1.107e-4, 3.765e+0
0.153, 1.519e-5, 1.107e-4, 3.770e+0
0.154, 1.461e-5, 1.108e-4, 3.775e+0
0.155, 1.400e-5, 1.109e-4, 3.780e+0
0.156, 1.347e-5, 1.110e-4, 3.785e+0
0.157, 1.295e-5, 1.110e-4, 3.790e+0
0.158, 1.228e-5, 1.111e-4, 3.795e+0
0.159, 1.160e-5, 1.111e-4, 3.800e+0
0.160, 1.102e-5, 1.112e-4, 3.805e+0
0.161, 1.046e-5, 1.112e-4, 3.810e+0
0.162, 9.738e-6, 1.113e-4, 3.815e+0
0.163, 8.991e-6, 1.113e-4, 3.820e+0
0.164, 8.378e-6, 1.114e-4, 3.825e+0
0.165, 7.770e-6, 1.114e-4, 3.830e+0
0.166, 6.958e-6, 1.115e-4, 3.835e+0
0.167, 6.125e-6, 1.115e-4, 3.840e+0
0.168, 5.475e-6, 1.115e-4, 3.845e+0
0.169, 4.799e-6, 1.115e-4, 3.850e+0
0.170, 3.954e-6, 1.116e-4, 3.855e+0
0.171, 3.070e-6, 1.116e-4, 3.860e+0
0.172, 2.316e-6, 1.116e-4, 3.865e+0
0.173, 1.602e-6, 1.116e-4, 3.870e+0
0.174, 6.851e-7, 1.116e-4, 3.875e+0
0.175, -2.562e-7, 1.116e-4, 3.880e+0
0.176, -1.055e-6, 1.116e-4, 3.885e+0
0.177, -1.822e-6, 1.116e-4, 3.890e+0
0.178, -2.821e-6, 1.116e-4, 3.895e+0
0.179, -3.796e-6, 1.115e-4, 3.900e+0
0.180, -4.626e-6, 1.115e-4, 3.905e+0
0.181, -5.439e-6, 1.115e-4, 3.910e+0
0.182, -6.524e-6, 1.115e-4, 3.915e+0
0.183, -7.587e-6, 1.114e-4, 3.920e+0
0.184, -8.474e-6, 1.114e-4, 3.925e+0
0.185, -9.369e-6, 1.113e-4, 3.930e+0
0.186, -1.045e-5, 1.113e-4, 3.935e+0
0.187, -1.160e-5, 1.112e-4, 3.940e+0
0.188, -1.255e-5, 1.112e-4, 3.945e+0
0.189, -1.342e-5, 1.111e-4, 3.950e+0
0.190, -1.459e-5, 1.110e-4, 3.955e+0
0.191, -1.576e-5, 1.109e-4, 3.960e+0
0.192, -1.674e-5, 1.109e-4, 3.965e+0
0.193, -1.770e-5, 1.108e-4, 3.970e+0
0.194, -1.887e-5, 1.107e-4, 3.975e+0
0.195, -2.009e-5, 1.106e-4, 3.980e+0
0.196, -2.109e-5, 1.105e-4, 3.985e+0
0.197, -2.201e-5, 1.104e-4, 3.990e+0
0.198, -2.326e-5, 1.102e-4, 3.995e+0
0.199, -2.453e-5, 1.101e-4, 4.000e+0
0.200, -2.552e-5, 1.100e-4, 4.005e+0
0.201, -2.650e-5, 1.099e-4, 4.010e+0
0.202, -2.771e-5, 1.097e-4, 4.015e+0
0.203, -2.897e-5, 1.096e-4, 4.020e+0
0.204, -2.997e-5, 1.094e-4, 4.025e+0
0.205, -3.111e-5, 1.093e-4, 4.030e+0
0.206, -3.232e-5, 1.091e-4, 4.035e+0
0.207, -3.356e-5, 1.089e-4, 4.040e+0
0.208, -3.452e-5, 1.088e-4, 4.045e+0
0.209, -3.546e-5, 1.086e-4, 4.050e+0
0.210, -3.662e-5, 1.084e-4, 4.055e+0
0.211, -3.786e-5, 1.082e-4, 4.060e+0
0.212, -3.885e-5, 1.080e-4, 4.065e+0
0.213, -3.974e-5, 1.078e-4, 4.070e+0
0.214, -4.088e-5, 1.076e-4, 4.075e+0
0.215, -4.207e-5, 1.074e-4, 4.080e+0
0.216, -4.298e-5, 1.072e-4, 4.085e+0
0.217, -4.387e-5, 1.070e-4, 4.090e+0
0.218, -4.496e-5, 1.068e-4, 4.095e+0
0.219, -4.609e-5, 1.065e-4, 4.100e+0
0.220, -4.695e-5, 1.063e-4, 4.105e+0
0.221, -4.771e-5, 1.060e-4, 4.110e+0
0.222, -4.875e-5, 1.058e-4, 4.115e+0
0.223, -4.979e-5, 1.056e-4, 4.120e+0
0.224, -5.055e-5, 1.053e-4, 4.125e+0
0.225, -5.123e-5, 1.050e-4, 4.130e+0
0.226, -5.220e-5, 1.048e-4, 4.135e+0
0.227, -5.318e-5, 1.045e-4, 4.140e+0
0.228, -5.386e-5, 1.043e-4, 4.145e+0
0.229, -5.444e-5, 1.040e-4, 4.150e+0
0.230, -5.530e-5, 1.037e-4, 4.155e+0
0.231, -5.611e-5, 1.034e-4, 4.160e+0
0.232, -5.668e-5, 1.031e-4, 4.165e+0
0.233, -5.719e-5, 1.029e-4, 4.170e+0
0.234, -5.792e-5, 1.026e-4, 4.175e+0
0.235, -5.867e-5, 1.023e-4, 4.180e+0
0.236, -5.913e-5, 1.020e-4, 4.185e+0
0.237, -5.951e-5, 1.017e-4, 4.190e+0
0.238, -6.019e-5, 1.014e-4, 4.195e+0
0.239, -6.081e-5, 1.011e-4, 4.200e+0
0.240, -6.111e-5, 1.008e-4, 4.205e+0
0.241, -6.142e-5, 1.005e-4, 4.210e+0
0.242, -6.190e-5, 1.001e-4, 4.215e+0
0.243, -6.242e-5, 9.984e-5, 4.220e+0
0.244, -6.264e-5, 9.952e-5, 4.225e+0
0.245, -6.274e-5, 9.921e-5, 4.230e+0
0.246, -6.318e-5, 9.889e-5, 4.235e+0
0.247, -6.355e-5, 9.858e-5, 4.240e+0
0.248, -6.365e-5, 9.826e-5, 4.245e+0
0.249, -6.371e-5, 9.794e-5, 4.250e+0
0.250, -6.400e-5, 9.762e-5, 4.255e+0
0.251, -6.426e-5, 9.730e-5, 4.260e+0
0.252, -6.425e-5, 9.698e-5, 4.265e+0
0.253, -6.418e-5, 9.666e-5, 4.270e+0
0.254, -6.435e-5, 9.633e-5, 4.275e+0
0.255, -6.449e-5, 9.601e-5, 4.280e+0
0.256, -6.433e-5, 9.569e-5, 4.285e+0
0.257, -6.420e-5, 9.537e-5, 4.290e+0
0.258, -6.427e-5, 9.505e-5, 4.295e+0
0.259, -6.433e-5, 9.473e-5, 4.300e+0
0.260, -6.416e-5, 9.441e-5, 4.305e+0
0.261, -6.393e-5, 9.409e-5, 4.310e+0
0.262, -6.391e-5, 9.377e-5, 4.315e+0
0.263, -6.386e-5, 9.345e-5, 4.320e+0
0.264, -6.358e-5, 9.313e-5, 4.325e+0
0.265, -6.331e-5, 9.281e-5, 4.330e+0
0.266, -6.320e-5, 9.250e-5, 4.335e+0
0.267, -6.307e-5, 9.218e-5, 4.340e+0
0.268, -6.273e-5, 9.187e-5, 4.345e+0
0.269, -6.240e-5, 9.156e-5, 4.350e+0
0.270, -6.224e-5, 9.124e-5, 4.355e+0
0.271, -6.203e-5, 9.093e-5, 4.360e+0
0.272, -6.164e-5, 9.063e-5, 4.365e+0
0.273, -6.124e-5, 9.032e-5, 4.370e+0
0.274, -6.104e-5, 9.001e-5, 4.375e+0
0.275, -6.080e-5, 8.971e-5, 4.380e+0
0.276, -6.037e-5, 8.941e-5, 4.385e+0
0.277, -5.996e-5, 8.911e-5, 4.390e+0
0.278, -5.970e-5, 8.881e-5, 4.395e+0
0.279, -5.939e-5, 8.851e-5, 4.400e+0
0.280, -5.894e-5, 8.822e-5, 4.405e+0
0.281, -5.851e-5, 8.793e-5, 4.410e+0
0.282, -5.820e-5, 8.764e-5, 4.415e+0
0.283, -5.789e-5, 8.735e-5, 4.420e+0
0.284, -5.743e-5, 8.706e-5, 4.425e+0
0.285, -5.697e-5, 8.677e-5, 4.430e+0
0.286, -5.666e-5, 8.649e-5, 4.435e+0
0.287, -5.632e-5, 8.621e-5, 4.440e+0
0.288, -5.584e-5, 8.593e-5, 4.445e+0
0.289, -5.539e-5, 8.565e-5, 4.450e+0
0.290, -5.505e-5, 8.538e-5, 4.455e+0
0.291, -5.470e-5, 8.510e-5, 4.460e+0
0.292, -5.423e-5, 8.483e-5, 4.465e+0
0.293, -5.376e-5, 8.456e-5, 4.470e+0
0.294, -5.344e-5, 8.430e-5, 4.475e+0
0.295, -5.307e-5, 8.403e-5, 4.480e+0
0.296, -5.259e-5, 8.377e-5, 4.485e+0
0.297, -5.215e-5, 8.351e-5, 4.490e+0
0.298, -5.181e-5, 8.325e-5, 4.495e+0
0.299, -5.143e-5, 8.299e-5, 4.500e+0
0.300, -5.098e-5, 8.274e-5, 4.505e+0
0.301, -5.054e-5, 8.248e-5, 4.510e+0
0.302, -5.020e-5, 8.223e-5, 4.515e+0
0.303, -4.985e-5, 8.198e-5, 4.520e+0
0.304, -4.938e-5, 8.174e-5, 4.525e+0
0.305, -4.896e-5, 8.149e-5, 4.530e+0
0.306, -4.864e-5, 8.125e-5, 4.535e+0
0.307, -4.828e-5, 8.101e-5, 4.540e+0
0.308, -4.785e-5, 8.077e-5, 4.545e+0
0.309, -4.743e-5, 8.053e-5, 4.550e+0
0.310, -4.711e-5, 8.030e-5, 4.555e+0
0.311, -4.676e-5, 8.006e-5, 4.560e+0
0.312, -4.633e-5, 7.983e-5, 4.565e+0
0.313, -4.594e-5, 7.960e-5, 4.570e+0
0.314, -4.564e-5, 7.937e-5, 4.575e+0
0.315, -4.529e-5, 7.915e-5, 4.580e+0
0.316, -4.488e-5, 7.892e-5, 4.585e+0
0.317, -4.451e-5, 7.870e-5, 4.590e+0
0.318, -4.422e-5, 7.848e-5, 4.595e+0
0.319, -4.388e-5, 7.826e-5, 4.600e+0
0.320, -4.350e-5, 7.804e-5, 4.605e+0
0.321, -4.315e-5, 7.783e-5, 4.610e+0
0.322, -4.286e-5, 7.761e-5, 4.615e+0
0.323, -4.255e-5, 7.740e-5, 4.620e+0
0.324, -4.217e-5, 7.719e-5, 4.625e+0
0.325, -4.182e-5, 7.698e-5, 4.630e+0
0.326, -4.156e-5, 7.677e-5, 4.635e+0
0.327, -4.126e-5, 7.656e-5, 4.640e+0
0.328, -4.090e-5, 7.636e-5, 4.645e+0
0.329, -4.058e-5, 7.616e-5, 4.650e+0
0.330, -4.033e-5, 7.596e-5, 4.655e+0
0.331, -4.002e-5, 7.576e-5, 4.660e+0
0.332, -3.969e-5, 7.556e-5, 4.665e+0
0.333, -3.937e-5, 7.536e-5, 4.670e+0
0.334, -3.914e-5, 7.516e-5, 4.675e+0
0.335, -3.887e-5, 7.497e-5, 4.680e+0
0.336, -3.853e-5, 7.478e-5, 4.685e+0
0.337, -3.825e-5, 7.459e-5, 4.690e+0
0.338, -3.802e-5, 7.440e-5, 4.695e+0
0.339, -3.775e-5, 7.421e-5, 4.700e+0
0.340, -3.745e-5, 7.402e-5, 4.705e+0
0.341, -3.717e-5, 7.383e-5, 4.710e+0
0.342, -3.695e-5, 7.365e-5, 4.715e+0
0.343, -3.671e-5, 7.347e-5, 4.720e+0
0.344, -3.641e-5, 7.328e-5, 4.725e+0
0.345, -3.615e-5, 7.310e-5, 4.730e+0
0.346, -3.594e-5, 7.292e-5, 4.735e+0
0.347, -3.570e-5, 7.274e-5, 4.740e+0
0.348, -3.543e-5, 7.257e-5, 4.745e+0
0.349, -3.518e-5, 7.239e-5, 4.750e+0
0.350, -3.499e-5, 7.222e-5, 4.755e+0
0.351, -3.476e-5, 7.204e-5, 4.760e+0
0.352, -3.449e-5, 7.187e-5, 4.765e+0
0.353, -3.426e-5, 7.170e-5, 4.770e+0
0.354, -3.407e-5, 7.153e-5, 4.775e+0
0.355, -3.386e-5, 7.136e-5, 4.780e+0
0.356, -3.361e-5, 7.119e-5, 4.785e+0
0.357, -3.338e-5, 7.102e-5, 4.790e+0
0.358, -3.320e-5, 7.086e-5, 4.795e+0
0.359, -3.300e-5, 7.069e-5, 4.800e+0
0.360, -3.275e-5, 7.053e-5, 4.805e+0
0.361, -3.255e-5, 7.037e-5, 4.810e+0
0.362, -3.239e-5, 7.021e-5, 4.815e+0
0.363, -3.219e-5, 7.004e-5, 4.820e+0
0.364, -3.196e-5, 6.988e-5, 4.825e+0
0.365, -3.176e-5, 6.973e-5, 4.830e+0
0.366, -3.162e-5, 6.957e-5, 4.835e+0
0.367, -3.142e-5, 6.941e-5, 4.840e+0
0.368, -3.119e-5, 6.925e-5, 4.845e+0
0.369, -3.101e-5, 6.910e-5, 4.850e+0
0.370, -3.087e-5, 6.894e-5, 4.855e+0
0.371, -3.070e-5, 6.879e-5, 4.860e+0
0.372, -3.048e-5, 6.864e-5, 4.865e+0
0.373, -3.030e-5, 6.849e-5, 4.870e+0
0.374, -3.017e-5, 6.834e-5, 4.875e+0
0.375, -3.000e-5, 6.819e-5, 4.880e+0
0.376, -2.979e-5, 6.804e-5, 4.885e+0
0.377, -2.963e-5, 6.789e-5, 4.890e+0
0.378, -2.951e-5, 6.774e-5, 4.895e+0
0.379, -2.933e-5, 6.760e-5, 4.900e+0
0.380, -2.914e-5, 6.745e-5, 4.905e+0
0.381, -2.898e-5, 6.730e-5, 4.910e+0
0.382, -2.886e-5, 6.716e-5, 4.915e+0
0.383, -2.871e-5, 6.702e-5, 4.920e+0
0.384, -2.851e-5, 6.687e-5, 4.925e+0
0.385, -2.837e-5, 6.673e-5, 4.930e+0
0.386, -2.825e-5, 6.659e-5, 4.935e+0
0.387, -2.811e-5, 6.645e-5, 4.940e+0
0.388, -2.793e-5, 6.631e-5, 4.945e+0
0.389, -2.778e-5, 6.617e-5, 4.950e+0
0.390, -2.767e-5, 6.603e-5, 4.955e+0
0.391, -2.753e-5, 6.590e-5, 4.960e+0
0.392, -2.736e-5, 6.576e-5, 4.965e+0
0.393, -2.722e-5, 6.562e-5, 4.970e+0
0.394, -2.712e-5, 6.549e-5, 4.975e+0
0.395, -2.698e-5, 6.535e-5, 4.980e+0
0.396, -2.682e-5, 6.522e-5, 4.985e+0
0.397, -2.669e-5, 6.509e-5, 4.990e+0
0.398, -2.659e-5, 6.495e-5, 4.995e+0
0.399, -2.647e-5, 6.482e-5, 5.000e+0
0.400, -2.630e-5, 6.469e-5, 5.005e+0
0.401, -2.618e-5, 6.456e-5, 5.010e+0
0.402, -2.609e-5, 6.443e-5, 5.015e+0
0.403, -2.596e-5, 6.430e-5, 5.020e+0
0.404, -2.581e-5, 6.417e-5, 5.025e+0
0.405, -2.569e-5, 6.404e-5, 5.030e+0
0.406, -2.561e-5, 6.391e-5, 5.035e+0
0.407, -2.549e-5, 6.378e-5, 5.040e+0
0.408, -2.533e-5, 6.366e-5, 5.045e+0
0.409, -2.520e-5, 6.353e-5, 5.050e+0
0.410, -2.511e-5, 6.341e-5, 5.055e+0
0.411, -2.502e-5, 6.328e-5, 5.060e+0
0.412, -2.488e-5, 6.316e-5, 5.065e+0
0.413, -2.478e-5, 6.303e-5, 5.070e+0
0.414, -2.470e-5, 6.291e-5, 5.075e+0
0.415, -2.459e-5, 6.279e-5, 5.080e+0
0.416, -2.445e-5, 6.266e-5, 5.085e+0
0.417, -2.435e-5, 6.254e-5, 5.090e+0
0.418, -2.428e-5, 6.242e-5, 5.095e+0
0.419, -2.417e-5, 6.230e-5, 5.100e+0
0.420, -2.403e-5, 6.218e-5, 5.105e+0
0.421, -2.393e-5, 6.206e-5, 5.110e+0
0.422, -2.387e-5, 6.194e-5, 5.115e+0
0.423, -2.377e-5, 6.182e-5, 5.120e+0
0.424, -2.363e-5, 6.170e-5, 5.125e+0
0.425, -2.354e-5, 6.159e-5, 5.130e+0
0.426, -2.347e-5, 6.147e-5, 5.135e+0
0.427, -2.338e-5, 6.135e-5, 5.140e+0
0.428, -2.325e-5, 6.124e-5, 5.145e+0
0.429, -2.317e-5, 6.112e-5, 5.150e+0
0.430, -2.310e-5, 6.100e-5, 5.155e+0
0.431, -2.301e-5, 6.089e-5, 5.160e+0
0.432, -2.288e-5, 6.077e-5, 5.165e+0
0.433, -2.279e-5, 6.066e-5, 5.170e+0
0.434, -2.274e-5, 6.055e-5, 5.175e+0
0.435, -2.264e-5, 6.043e-5, 5.180e+0
0.436, -2.253e-5, 6.032e-5, 5.185e+0
0.437, -2.245e-5, 6.021e-5, 5.190e+0
0.438, -2.239e-5, 6.010e-5, 5.195e+0
0.439, -2.230e-5, 5.999e-5, 5.200e+0
0.440, -2.218e-5, 5.987e-5, 5.205e+0
0.441, -2.210e-5, 5.976e-5, 5.210e+0
0.442, -2.206e-5, 5.965e-5, 5.215e+0
0.443, -2.197e-5, 5.954e-5, 5.220e+0
0.444, -2.186e-5, 5.943e-5, 5.225e+0
0.445, -2.178e-5, 5.933e-5, 5.230e+0
0.446, -2.173e-5, 5.922e-5, 5.235e+0
0.447, -2.165e-5, 5.911e-5, 5.240e+0
0.448, -2.154e-5, 5.900e-5, 5.245e+0
0.449, -2.147e-5, 5.889e-5, 5.250e+0
0.450, -2.142e-5, 5.879e-5, 5.255e+0
0.451, -2.134e-5, 5.868e-5, 5.260e+0
0.452, -2.124e-5, 5.857e-5, 5.265e+0
0.453, -2.116e-5, 5.847e-5, 5.270e+0
0.454, -2.112e-5, 5.836e-5, 5.275e+0
0.455, -2.105e-5, 5.826e-5, 5.280e+0
0.456, -2.094e-5, 5.815e-5, 5.285e+0
0.457, -2.087e-5, 5.805e-5, 5.290e+0
0.458, -2.084e-5, 5.794e-5, 5.295e+0
0.459, -2.076e-5, 5.784e-5, 5.300e+0
0.460, -2.066e-5, 5.774e-5, 5.305e+0
0.461, -2.058e-5, 5.763e-5, 5.310e+0
0.462, -2.055e-5, 5.753e-5, 5.315e+0
0.463, -2.048e-5, 5.743e-5, 5.320e+0
0.464, -2.038e-5, 5.733e-5, 5.325e+0
0.465, -2.032e-5, 5.723e-5, 5.330e+0
0.466, -2.029e-5, 5.712e-5, 5.335e+0
0.467, -2.021e-5, 5.702e-5, 5.340e+0
0.468, -2.012e-5, 5.692e-5, 5.345e+0
0.469, -2.005e-5, 5.682e-5, 5.350e+0
0.470, -2.003e-5, 5.672e-5, 5.355e+0
0.471, -1.996e-5, 5.662e-5, 5.360e+0
0.472, -1.985e-5, 5.652e-5, 5.365e+0
0.473, -1.980e-5, 5.642e-5, 5.370e+0
0.474, -1.977e-5, 5.633e-5, 5.375e+0
0.475, -1.970e-5, 5.623e-5, 5.380e+0
0.476, -1.961e-5, 5.613e-5, 5.385e+0
0.477, -1.955e-5, 5.603e-5, 5.390e+0
0.478, -1.952e-5, 5.593e-5, 5.395e+0
0.479, -1.947e-5, 5.584e-5, 5.400e+0
0.480, -1.936e-5, 5.574e-5, 5.405e+0
0.481, -1.931e-5, 5.564e-5, 5.410e+0
0.482, -1.930e-5, 5.555e-5, 5.415e+0
0.483, -1.922e-5, 5.545e-5, 5.420e+0
0.484, -1.914e-5, 5.535e-5, 5.425e+0
0.485, -1.908e-5, 5.526e-5, 5.430e+0
0.486, -1.906e-5, 5.516e-5, 5.435e+0
0.487, -1.900e-5, 5.507e-5, 5.440e+0
0.488, -1.890e-5, 5.497e-5, 5.445e+0
0.489, -1.886e-5, 5.488e-5, 5.450e+0
0.490, -1.884e-5, 5.479e-5, 5.455e+0
0.491, -1.877e-5, 5.469e-5, 5.460e+0
0.492, -1.869e-5, 5.460e-5, 5.465e+0
0.493, -1.865e-5, 5.450e-5, 5.470e+0
0.494, -1.862e-5, 5.441e-5, 5.475e+0
0.495, -1.857e-5, 5.432e-5, 5.480e+0
0.496, -1.848e-5, 5.423e-5, 5.485e+0
0.497, -1.844e-5, 5.413e-5, 5.490e+0
0.498, -1.841e-5, 5.404e-5, 5.495e+0
0.499, -1.836e-5, 5.395e-5, 5.500e+0
0.500, -1.828e-5, 5.386e-5, 5.505e+0
0.501, -1.823e-5, 5.377e-5, 5.510e+0
0.502, -1.822e-5, 5.368e-5, 5.515e+0
0.503, -1.816e-5, 5.359e-5, 5.520e+0
0.504, -1.808e-5, 5.350e-5, 5.525e+0
0.505, -1.803e-5, 5.341e-5, 5.530e+0
0.506, -1.802e-5, 5.332e-5, 5.535e+0
0.507, -1.796e-5, 5.323e-5, 5.540e+0
0.508, -1.789e-5, 5.314e-5, 5.545e+0
0.509, -1.785e-5, 5.305e-5, 5.550e+0
0.510, -1.783e-5, 5.296e-5, 5.555e+0
0.511, -1.778e-5, 5.287e-5, 5.560e+0
0.512, -1.770e-5, 5.278e-5, 5.565e+0
0.513, -1.767e-5, 5.269e-5, 5.570e+0
0.514, -1.765e-5, 5.260e-5, 5.575e+0
0.515, -1.760e-5, 5.252e-5, 5.580e+0
0.516, -1.752e-5, 5.243e-5, 5.585e+0
0.517, -1.748e-5, 5.234e-5, 5.590e+0
0.518, -1.748e-5, 5.225e-5, 5.595e+0
0.519, -1.742e-5, 5.217e-5, 5.600e+0
0.520, -1.734e-5, 5.208e-5, 5.605e+0
0.521, -1.731e-5, 5.199e-5, 5.610e+0
0.522, -1.730e-5, 5.191e-5, 5.615e+0
0.523, -1.726e-5, 5.182e-5, 5.620e+0
0.524, -1.718e-5, 5.173e-5, 5.625e+0
0.525, -1.714e-5, 5.165e-5, 5.630e+0
0.526, -1.713e-5, 5.156e-5, 5.635e+0
0.527, -1.709e-5, 5.148e-5, 5.640e+0
0.528, -1.701e-5, 5.139e-5, 5.645e+0
0.529, -1.698e-5, 5.131e-5, 5.650e+0
0.530, -1.697e-5, 5.122e-5, 5.655e+0
0.531, -1.693e-5, 5.114e-5, 5.660e+0
0.532, -1.686e-5, 5.105e-5, 5.665e+0
0.533, -1.682e-5, 5.097e-5, 5.670e+0
0.534, -1.682e-5, 5.089e-5, 5.675e+0
0.535, -1.678e-5, 5.080e-5, 5.680e+0
0.536, -1.670e-5, 5.072e-5, 5.685e+0
0.537, -1.667e-5, 5.063e-5, 5.690e+0
0.538, -1.667e-5, 5.055e-5, 5.695e+0
0.539, -1.663e-5, 5.047e-5, 5.700e+0
0.540, -1.656e-5, 5.039e-5, 5.705e+0
0.541, -1.653e-5, 5.030e-5, 5.710e+0
0.542, -1.652e-5, 5.022e-5, 5.715e+0
0.543, -1.649e-5, 5.014e-5, 5.720e+0
0.544, -1.641e-5, 5.006e-5, 5.725e+0
0.545, -1.639e-5, 4.997e-5, 5.730e+0
0.546, -1.639e-5, 4.989e-5, 5.735e+0
0.547, -1.634e-5, 4.981e-5, 5.740e+0
0.548, -1.628e-5, 4.973e-5, 5.745e+0
0.549, -1.625e-5, 4.965e-5, 5.750e+0
0.550, -1.626e-5, 4.957e-5, 5.755e+0
0.551, -1.621e-5, 4.949e-5, 5.760e+0
0.552, -1.614e-5, 4.940e-5, 5.765e+0
0.553, -1.612e-5, 4.932e-5, 5.770e+0
0.554, -1.613e-5, 4.924e-5, 5.775e+0
0.555, -1.608e-5, 4.916e-5, 5.780e+0
0.556, -1.602e-5, 4.908e-5, 5.785e+0
0.557, -1.599e-5, 4.900e-5, 5.790e+0
0.558, -1.600e-5, 4.892e-5, 5.795e+0
0.559, -1.596e-5, 4.884e-5, 5.800e+0
0.560, -1.590e-5, 4.876e-5, 5.805e+0
0.561, -1.587e-5, 4.868e-5, 5.810e+0
0.562, -1.588e-5, 4.860e-5, 5.815e+0
0.563, -1.583e-5, 4.853e-5, 5.820e+0
0.564, -1.578e-5, 4.845e-5, 5.825e+0
0.565, -1.575e-5, 4.837e-5, 5.830e+0
0.566, -1.576e-5, 4.829e-5, 5.835e+0
0.567, -1.573e-5, 4.821e-5, 5.840e+0
0.568, -1.566e-5, 4.813e-5, 5.845e+0
0.569, -1.565e-5, 4.805e-5, 5.850e+0
0.570, -1.565e-5, 4.798e-5, 5.855e+0
0.571, -1.562e-5, 4.790e-5, 5.860e+0
0.572, -1.555e-5, 4.782e-5, 5.865e+0
0.573, -1.554e-5, 4.774e-5, 5.870e+0
0.574, -1.554e-5, 4.766e-5, 5.875e+0
0.575, -1.551e-5, 4.759e-5, 5.880e+0
0.576, -1.545e-5, 4.751e-5, 5.885e+0
0.577, -1.544e-5, 4.743e-5, 5.890e+0
0.578, -1.544e-5, 4.736e-5, 5.895e+0
0.579, -1.541e-5, 4.728e-5, 5.900e+0
0.580, -1.535e-5, 4.720e-5, 5.905e+0
0.581, -1.533e-5, 4.712e-5, 5.910e+0
0.582, -1.535e-5, 4.705e-5, 5.915e+0
0.583, -1.532e-5, 4.697e-5, 5.920e+0
0.584, -1.525e-5, 4.690e-5, 5.925e+0
0.585, -1.524e-5, 4.682e-5, 5.930e+0
0.586, -1.525e-5, 4.674e-5, 5.935e+0
0.587, -1.522e-5, 4.667e-5, 5.940e+0
0.588, -1.517e-5, 4.659e-5, 5.945e+0
0.589, -1.514e-5, 4.652e-5, 5.950e+0
0.590, -1.517e-5, 4.644e-5, 5.955e+0
0.591, -1.514e-5, 4.636e-5, 5.960e+0
0.592, -1.508e-5, 4.629e-5, 5.965e+0
0.593, -1.507e-5, 4.621e-5, 5.970e+0
0.594, -1.509e-5, 4.614e-5, 5.975e+0
0.595, -1.505e-5, 4.606e-5, 5.980e+0
0.596, -1.500e-5, 4.599e-5, 5.985e+0
0.597, -1.498e-5, 4.591e-5, 5.990e+0
0.598, -1.501e-5, 4.584e-5, 5.995e+0
0.599, -1.498e-5, 4.576e-5, 6.000e+0
