May 18, 2026   15:59:52
Cyclic Voltammetry
File: 20mv_s.bin
Data Source:  Experiment
Instrument Model:  CHI660D
Header: 
Note: 

Init E (V) = 0.6
High E (V) = 0.6
Low E (V) = 0
Init P/N = N
Scan Rate (V/s) = 0.02
Segment = 2
Sample Interval (V) = 0.001
Quiet Time (sec) = 2
Sensitivity (A/V) = 1e-5

Segment 1:
Ep = 0.183V
Eh = 0.242V
ip = 2.977e-5A
Ah = 9.570e-5C

Segment 2:
Ep = 0.251V
Eh = 0.192V
ip = -2.618e-5A
Ah = -8.298e-5C

Potential/V, Current/A, Charge/C, Time/s

Segment 1:
0.600, -4.920e-6, -2.460e-7, 5.000e-2
0.599, -4.818e-6, -4.869e-7, 1.000e-1
0.598, -4.750e-6, -7.244e-7, 1.500e-1
0.597, -4.688e-6, -9.588e-7, 2.000e-1
0.596, -4.628e-6, -1.190e-6, 2.500e-1
0.595, -4.570e-6, -1.419e-6, 3.000e-1
0.594, -4.516e-6, -1.645e-6, 3.500e-1
0.593, -4.462e-6, -1.868e-6, 4.000e-1
0.592, -4.413e-6, -2.088e-6, 4.500e-1
0.591, -4.361e-6, -2.306e-6, 5.000e-1
0.590, -4.314e-6, -2.522e-6, 5.500e-1
0.589, -4.268e-6, -2.735e-6, 6.000e-1
0.588, -4.222e-6, -2.947e-6, 6.500e-1
0.587, -4.177e-6, -3.155e-6, 7.000e-1
0.586, -4.135e-6, -3.362e-6, 7.500e-1
0.585, -4.093e-6, -3.567e-6, 8.000e-1
0.584, -4.054e-6, -3.769e-6, 8.500e-1
0.583, -4.012e-6, -3.970e-6, 9.000e-1
0.582, -3.974e-6, -4.169e-6, 9.500e-1
0.581, -3.936e-6, -4.366e-6, 1.000e+0
0.580, -3.900e-6, -4.561e-6, 1.050e+0
0.579, -3.864e-6, -4.754e-6, 1.100e+0
0.578, -3.829e-6, -4.945e-6, 1.150e+0
0.577, -3.794e-6, -5.135e-6, 1.200e+0
0.576, -3.762e-6, -5.323e-6, 1.250e+0
0.575, -3.729e-6, -5.510e-6, 1.300e+0
0.574, -3.697e-6, -5.694e-6, 1.350e+0
0.573, -3.666e-6, -5.878e-6, 1.400e+0
0.572, -3.636e-6, -6.060e-6, 1.450e+0
0.571, -3.605e-6, -6.240e-6, 1.500e+0
0.570, -3.576e-6, -6.419e-6, 1.550e+0
0.569, -3.547e-6, -6.596e-6, 1.600e+0
0.568, -3.520e-6, -6.772e-6, 1.650e+0
0.567, -3.491e-6, -6.947e-6, 1.700e+0
0.566, -3.465e-6, -7.120e-6, 1.750e+0
0.565, -3.438e-6, -7.292e-6, 1.800e+0
0.564, -3.413e-6, -7.462e-6, 1.850e+0
0.563, -3.388e-6, -7.632e-6, 1.900e+0
0.562, -3.363e-6, -7.800e-6, 1.950e+0
0.561, -3.337e-6, -7.967e-6, 2.000e+0
0.560, -3.315e-6, -8.132e-6, 2.050e+0
0.559, -3.290e-6, -8.297e-6, 2.100e+0
0.558, -3.267e-6, -8.460e-6, 2.150e+0
0.557, -3.243e-6, -8.622e-6, 2.200e+0
0.556, -3.222e-6, -8.784e-6, 2.250e+0
0.555, -3.199e-6, -8.944e-6, 2.300e+0
0.554, -3.178e-6, -9.102e-6, 2.350e+0
0.553, -3.156e-6, -9.260e-6, 2.400e+0
0.552, -3.136e-6, -9.417e-6, 2.450e+0
0.551, -3.114e-6, -9.573e-6, 2.500e+0
0.550, -3.095e-6, -9.727e-6, 2.550e+0
0.549, -3.074e-6, -9.881e-6, 2.600e+0
0.548, -3.055e-6, -1.003e-5, 2.650e+0
0.547, -3.036e-6, -1.019e-5, 2.700e+0
0.546, -3.018e-6, -1.034e-5, 2.750e+0
0.545, -2.997e-6, -1.049e-5, 2.800e+0
0.544, -2.981e-6, -1.064e-5, 2.850e+0
0.543, -2.961e-6, -1.078e-5, 2.900e+0
0.542, -2.944e-6, -1.093e-5, 2.950e+0
0.541, -2.926e-6, -1.108e-5, 3.000e+0
0.540, -2.910e-6, -1.122e-5, 3.050e+0
0.539, -2.892e-6, -1.137e-5, 3.100e+0
0.538, -2.876e-6, -1.151e-5, 3.150e+0
0.537, -2.858e-6, -1.165e-5, 3.200e+0
0.536, -2.843e-6, -1.180e-5, 3.250e+0
0.535, -2.825e-6, -1.194e-5, 3.300e+0
0.534, -2.811e-6, -1.208e-5, 3.350e+0
0.533, -2.794e-6, -1.222e-5, 3.400e+0
0.532, -2.779e-6, -1.236e-5, 3.450e+0
0.531, -2.764e-6, -1.249e-5, 3.500e+0
0.530, -2.749e-6, -1.263e-5, 3.550e+0
0.529, -2.733e-6, -1.277e-5, 3.600e+0
0.528, -2.720e-6, -1.290e-5, 3.650e+0
0.527, -2.704e-6, -1.304e-5, 3.700e+0
0.526, -2.692e-6, -1.317e-5, 3.750e+0
0.525, -2.676e-6, -1.331e-5, 3.800e+0
0.524, -2.663e-6, -1.344e-5, 3.850e+0
0.523, -2.649e-6, -1.357e-5, 3.900e+0
0.522, -2.637e-6, -1.371e-5, 3.950e+0
0.521, -2.622e-6, -1.384e-5, 4.000e+0
0.520, -2.610e-6, -1.397e-5, 4.050e+0
0.519, -2.595e-6, -1.410e-5, 4.100e+0
0.518, -2.584e-6, -1.423e-5, 4.150e+0
0.517, -2.570e-6, -1.435e-5, 4.200e+0
0.516, -2.558e-6, -1.448e-5, 4.250e+0
0.515, -2.545e-6, -1.461e-5, 4.300e+0
0.514, -2.534e-6, -1.474e-5, 4.350e+0
0.513, -2.520e-6, -1.486e-5, 4.400e+0
0.512, -2.510e-6, -1.499e-5, 4.450e+0
0.511, -2.497e-6, -1.511e-5, 4.500e+0
0.510, -2.486e-6, -1.524e-5, 4.550e+0
0.509, -2.474e-6, -1.536e-5, 4.600e+0
0.508, -2.463e-6, -1.548e-5, 4.650e+0
0.507, -2.451e-6, -1.561e-5, 4.700e+0
0.506, -2.441e-6, -1.573e-5, 4.750e+0
0.505, -2.428e-6, -1.585e-5, 4.800e+0
0.504, -2.419e-6, -1.597e-5, 4.850e+0
0.503, -2.406e-6, -1.609e-5, 4.900e+0
0.502, -2.397e-6, -1.621e-5, 4.950e+0
0.501, -2.385e-6, -1.633e-5, 5.000e+0
0.500, -2.376e-6, -1.645e-5, 5.050e+0
0.499, -2.364e-6, -1.657e-5, 5.100e+0
0.498, -2.355e-6, -1.669e-5, 5.150e+0
0.497, -2.343e-6, -1.680e-5, 5.200e+0
0.496, -2.335e-6, -1.692e-5, 5.250e+0
0.495, -2.324e-6, -1.704e-5, 5.300e+0
0.494, -2.315e-6, -1.715e-5, 5.350e+0
0.493, -2.304e-6, -1.727e-5, 5.400e+0
0.492, -2.295e-6, -1.738e-5, 5.450e+0
0.491, -2.285e-6, -1.750e-5, 5.500e+0
0.490, -2.276e-6, -1.761e-5, 5.550e+0
0.489, -2.265e-6, -1.772e-5, 5.600e+0
0.488, -2.257e-6, -1.784e-5, 5.650e+0
0.487, -2.247e-6, -1.795e-5, 5.700e+0
0.486, -2.239e-6, -1.806e-5, 5.750e+0
0.485, -2.229e-6, -1.817e-5, 5.800e+0
0.484, -2.220e-6, -1.828e-5, 5.850e+0
0.483, -2.210e-6, -1.839e-5, 5.900e+0
0.482, -2.203e-6, -1.850e-5, 5.950e+0
0.481, -2.193e-6, -1.861e-5, 6.000e+0
0.480, -2.185e-6, -1.872e-5, 6.050e+0
0.479, -2.175e-6, -1.883e-5, 6.100e+0
0.478, -2.168e-6, -1.894e-5, 6.150e+0
0.477, -2.159e-6, -1.905e-5, 6.200e+0
0.476, -2.150e-6, -1.915e-5, 6.250e+0
0.475, -2.141e-6, -1.926e-5, 6.300e+0
0.474, -2.134e-6, -1.937e-5, 6.350e+0
0.473, -2.124e-6, -1.947e-5, 6.400e+0
0.472, -2.118e-6, -1.958e-5, 6.450e+0
0.471, -2.109e-6, -1.969e-5, 6.500e+0
0.470, -2.102e-6, -1.979e-5, 6.550e+0
0.469, -2.093e-6, -1.990e-5, 6.600e+0
0.468, -2.085e-6, -2.000e-5, 6.650e+0
0.467, -2.075e-6, -2.010e-5, 6.700e+0
0.466, -2.071e-6, -2.021e-5, 6.750e+0
0.465, -2.061e-6, -2.031e-5, 6.800e+0
0.464, -2.055e-6, -2.041e-5, 6.850e+0
0.463, -2.045e-6, -2.051e-5, 6.900e+0
0.462, -2.039e-6, -2.062e-5, 6.950e+0
0.461, -2.032e-6, -2.072e-5, 7.000e+0
0.460, -2.024e-6, -2.082e-5, 7.050e+0
0.459, -2.016e-6, -2.092e-5, 7.100e+0
0.458, -2.009e-6, -2.102e-5, 7.150e+0
0.457, -2.000e-6, -2.112e-5, 7.200e+0
0.456, -1.995e-6, -2.122e-5, 7.250e+0
0.455, -1.985e-6, -2.132e-5, 7.300e+0
0.454, -1.980e-6, -2.142e-5, 7.350e+0
0.453, -1.972e-6, -2.152e-5, 7.400e+0
0.452, -1.965e-6, -2.162e-5, 7.450e+0
0.451, -1.957e-6, -2.171e-5, 7.500e+0
0.450, -1.951e-6, -2.181e-5, 7.550e+0
0.449, -1.943e-6, -2.191e-5, 7.600e+0
0.448, -1.937e-6, -2.201e-5, 7.650e+0
0.447, -1.929e-6, -2.210e-5, 7.700e+0
0.446, -1.923e-6, -2.220e-5, 7.750e+0
0.445, -1.915e-6, -2.229e-5, 7.800e+0
0.444, -1.909e-6, -2.239e-5, 7.850e+0
0.443, -1.901e-6, -2.248e-5, 7.900e+0
0.442, -1.896e-6, -2.258e-5, 7.950e+0
0.441, -1.887e-6, -2.267e-5, 8.000e+0
0.440, -1.882e-6, -2.277e-5, 8.050e+0
0.439, -1.874e-6, -2.286e-5, 8.100e+0
0.438, -1.868e-6, -2.295e-5, 8.150e+0
0.437, -1.861e-6, -2.305e-5, 8.200e+0
0.436, -1.855e-6, -2.314e-5, 8.250e+0
0.435, -1.848e-6, -2.323e-5, 8.300e+0
0.434, -1.842e-6, -2.332e-5, 8.350e+0
0.433, -1.833e-6, -2.342e-5, 8.400e+0
0.432, -1.828e-6, -2.351e-5, 8.450e+0
0.431, -1.821e-6, -2.360e-5, 8.500e+0
0.430, -1.816e-6, -2.369e-5, 8.550e+0
0.429, -1.807e-6, -2.378e-5, 8.600e+0
0.428, -1.802e-6, -2.387e-5, 8.650e+0
0.427, -1.794e-6, -2.396e-5, 8.700e+0
0.426, -1.789e-6, -2.405e-5, 8.750e+0
0.425, -1.781e-6, -2.414e-5, 8.800e+0
0.424, -1.776e-6, -2.423e-5, 8.850e+0
0.423, -1.767e-6, -2.432e-5, 8.900e+0
0.422, -1.762e-6, -2.440e-5, 8.950e+0
0.421, -1.755e-6, -2.449e-5, 9.000e+0
0.420, -1.749e-6, -2.458e-5, 9.050e+0
0.419, -1.741e-6, -2.467e-5, 9.100e+0
0.418, -1.736e-6, -2.475e-5, 9.150e+0
0.417, -1.728e-6, -2.484e-5, 9.200e+0
0.416, -1.723e-6, -2.492e-5, 9.250e+0
0.415, -1.715e-6, -2.501e-5, 9.300e+0
0.414, -1.709e-6, -2.510e-5, 9.350e+0
0.413, -1.701e-6, -2.518e-5, 9.400e+0
0.412, -1.696e-6, -2.527e-5, 9.450e+0
0.411, -1.688e-6, -2.535e-5, 9.500e+0
0.410, -1.688e-6, -2.543e-5, 9.550e+0
0.409, -1.677e-6, -2.552e-5, 9.600e+0
0.408, -1.670e-6, -2.560e-5, 9.650e+0
0.407, -1.662e-6, -2.569e-5, 9.700e+0
0.406, -1.656e-6, -2.577e-5, 9.750e+0
0.405, -1.648e-6, -2.585e-5, 9.800e+0
0.404, -1.641e-6, -2.593e-5, 9.850e+0
0.403, -1.634e-6, -2.601e-5, 9.900e+0
0.402, -1.628e-6, -2.610e-5, 9.950e+0
0.401, -1.619e-6, -2.618e-5, 1.000e+1
0.400, -1.614e-6, -2.626e-5, 1.005e+1
0.399, -1.605e-6, -2.634e-5, 1.010e+1
0.398, -1.599e-6, -2.642e-5, 1.015e+1
0.397, -1.589e-6, -2.650e-5, 1.020e+1
0.396, -1.584e-6, -2.658e-5, 1.025e+1
0.395, -1.575e-6, -2.665e-5, 1.030e+1
0.394, -1.570e-6, -2.673e-5, 1.035e+1
0.393, -1.560e-6, -2.681e-5, 1.040e+1
0.392, -1.554e-6, -2.689e-5, 1.045e+1
0.391, -1.545e-6, -2.697e-5, 1.050e+1
0.390, -1.537e-6, -2.704e-5, 1.055e+1
0.389, -1.528e-6, -2.712e-5, 1.060e+1
0.388, -1.522e-6, -2.720e-5, 1.065e+1
0.387, -1.512e-6, -2.727e-5, 1.070e+1
0.386, -1.505e-6, -2.735e-5, 1.075e+1
0.385, -1.495e-6, -2.742e-5, 1.080e+1
0.384, -1.489e-6, -2.750e-5, 1.085e+1
0.383, -1.479e-6, -2.757e-5, 1.090e+1
0.382, -1.471e-6, -2.764e-5, 1.095e+1
0.381, -1.461e-6, -2.772e-5, 1.100e+1
0.380, -1.453e-6, -2.779e-5, 1.105e+1
0.379, -1.442e-6, -2.786e-5, 1.110e+1
0.378, -1.433e-6, -2.793e-5, 1.115e+1
0.377, -1.423e-6, -2.800e-5, 1.120e+1
0.376, -1.415e-6, -2.807e-5, 1.125e+1
0.375, -1.403e-6, -2.814e-5, 1.130e+1
0.374, -1.393e-6, -2.821e-5, 1.135e+1
0.373, -1.383e-6, -2.828e-5, 1.140e+1
0.372, -1.373e-6, -2.835e-5, 1.145e+1
0.371, -1.361e-6, -2.842e-5, 1.150e+1
0.370, -1.352e-6, -2.849e-5, 1.155e+1
0.369, -1.339e-6, -2.855e-5, 1.160e+1
0.368, -1.329e-6, -2.862e-5, 1.165e+1
0.367, -1.315e-6, -2.869e-5, 1.170e+1
0.366, -1.304e-6, -2.875e-5, 1.175e+1
0.365, -1.291e-6, -2.882e-5, 1.180e+1
0.364, -1.279e-6, -2.888e-5, 1.185e+1
0.363, -1.266e-6, -2.894e-5, 1.190e+1
0.362, -1.253e-6, -2.901e-5, 1.195e+1
0.361, -1.237e-6, -2.907e-5, 1.200e+1
0.360, -1.225e-6, -2.913e-5, 1.205e+1
0.359, -1.212e-6, -2.919e-5, 1.210e+1
0.358, -1.199e-6, -2.925e-5, 1.215e+1
0.357, -1.181e-6, -2.931e-5, 1.220e+1
0.356, -1.166e-6, -2.937e-5, 1.225e+1
0.355, -1.150e-6, -2.943e-5, 1.230e+1
0.354, -1.135e-6, -2.948e-5, 1.235e+1
0.353, -1.117e-6, -2.954e-5, 1.240e+1
0.352, -1.100e-6, -2.959e-5, 1.245e+1
0.351, -1.081e-6, -2.965e-5, 1.250e+1
0.350, -1.065e-6, -2.970e-5, 1.255e+1
0.349, -1.045e-6, -2.975e-5, 1.260e+1
0.348, -1.027e-6, -2.980e-5, 1.265e+1
0.347, -1.006e-6, -2.985e-5, 1.270e+1
0.346, -9.850e-7, -2.990e-5, 1.275e+1
0.345, -9.635e-7, -2.995e-5, 1.280e+1
0.344, -9.439e-7, -3.000e-5, 1.285e+1
0.343, -9.197e-7, -3.004e-5, 1.290e+1
0.342, -8.974e-7, -3.009e-5, 1.295e+1
0.341, -8.738e-7, -3.013e-5, 1.300e+1
0.340, -8.489e-7, -3.018e-5, 1.305e+1
0.339, -8.226e-7, -3.022e-5, 1.310e+1
0.338, -7.981e-7, -3.026e-5, 1.315e+1
0.337, -7.691e-7, -3.030e-5, 1.320e+1
0.336, -7.445e-7, -3.033e-5, 1.325e+1
0.335, -7.129e-7, -3.037e-5, 1.330e+1
0.334, -6.850e-7, -3.040e-5, 1.335e+1
0.333, -6.541e-7, -3.043e-5, 1.340e+1
0.332, -6.242e-7, -3.047e-5, 1.345e+1
0.331, -5.905e-7, -3.050e-5, 1.350e+1
0.330, -5.569e-7, -3.052e-5, 1.355e+1
0.329, -5.208e-7, -3.055e-5, 1.360e+1
0.328, -4.870e-7, -3.057e-5, 1.365e+1
0.327, -4.477e-7, -3.060e-5, 1.370e+1
0.326, -4.112e-7, -3.062e-5, 1.375e+1
0.325, -3.696e-7, -3.064e-5, 1.380e+1
0.324, -3.300e-7, -3.065e-5, 1.385e+1
0.323, -2.870e-7, -3.067e-5, 1.390e+1
0.322, -2.432e-7, -3.068e-5, 1.395e+1
0.321, -1.966e-7, -3.069e-5, 1.400e+1
0.320, -1.525e-7, -3.070e-5, 1.405e+1
0.319, -1.011e-7, -3.070e-5, 1.410e+1
0.318, -5.438e-8, -3.070e-5, 1.415e+1
0.317, -1.336e-9, -3.070e-5, 1.420e+1
0.316, 5.152e-8, -3.070e-5, 1.425e+1
0.315, 1.087e-7, -3.070e-5, 1.430e+1
0.314, 1.640e-7, -3.069e-5, 1.435e+1
0.313, 2.261e-7, -3.068e-5, 1.440e+1
0.312, 2.827e-7, -3.066e-5, 1.445e+1
0.311, 3.490e-7, -3.064e-5, 1.450e+1
0.310, 4.137e-7, -3.062e-5, 1.455e+1
0.309, 4.823e-7, -3.060e-5, 1.460e+1
0.308, 5.523e-7, -3.057e-5, 1.465e+1
0.307, 6.250e-7, -3.054e-5, 1.470e+1
0.306, 7.000e-7, -3.051e-5, 1.475e+1
0.305, 7.774e-7, -3.047e-5, 1.480e+1
0.304, 8.545e-7, -3.042e-5, 1.485e+1
0.303, 9.409e-7, -3.038e-5, 1.490e+1
0.302, 1.023e-6, -3.033e-5, 1.495e+1
0.301, 1.114e-6, -3.027e-5, 1.500e+1
0.300, 1.201e-6, -3.021e-5, 1.505e+1
0.299, 1.301e-6, -3.015e-5, 1.510e+1
0.298, 1.393e-6, -3.008e-5, 1.515e+1
0.297, 1.496e-6, -3.000e-5, 1.520e+1
0.296, 1.598e-6, -2.992e-5, 1.525e+1
0.295, 1.710e-6, -2.984e-5, 1.530e+1
0.294, 1.817e-6, -2.974e-5, 1.535e+1
0.293, 1.932e-6, -2.965e-5, 1.540e+1
0.292, 2.048e-6, -2.955e-5, 1.545e+1
0.291, 2.171e-6, -2.944e-5, 1.550e+1
0.290, 2.298e-6, -2.932e-5, 1.555e+1
0.289, 2.428e-6, -2.920e-5, 1.560e+1
0.288, 2.559e-6, -2.907e-5, 1.565e+1
0.287, 2.703e-6, -2.894e-5, 1.570e+1
0.286, 2.837e-6, -2.880e-5, 1.575e+1
0.285, 2.985e-6, -2.865e-5, 1.580e+1
0.284, 3.136e-6, -2.849e-5, 1.585e+1
0.283, 3.299e-6, -2.832e-5, 1.590e+1
0.282, 3.446e-6, -2.815e-5, 1.595e+1
0.281, 3.616e-6, -2.797e-5, 1.600e+1
0.280, 3.784e-6, -2.778e-5, 1.605e+1
0.279, 3.965e-6, -2.758e-5, 1.610e+1
0.278, 4.141e-6, -2.738e-5, 1.615e+1
0.277, 4.328e-6, -2.716e-5, 1.620e+1
0.276, 4.517e-6, -2.693e-5, 1.625e+1
0.275, 4.717e-6, -2.670e-5, 1.630e+1
0.274, 4.921e-6, -2.645e-5, 1.635e+1
0.273, 5.133e-6, -2.620e-5, 1.640e+1
0.272, 5.336e-6, -2.593e-5, 1.645e+1
0.271, 5.561e-6, -2.565e-5, 1.650e+1
0.270, 5.774e-6, -2.536e-5, 1.655e+1
0.269, 6.011e-6, -2.506e-5, 1.660e+1
0.268, 6.245e-6, -2.475e-5, 1.665e+1
0.267, 6.488e-6, -2.443e-5, 1.670e+1
0.266, 6.736e-6, -2.409e-5, 1.675e+1
0.265, 7.002e-6, -2.374e-5, 1.680e+1
0.264, 7.244e-6, -2.338e-5, 1.685e+1
0.263, 7.514e-6, -2.300e-5, 1.690e+1
0.262, 7.785e-6, -2.261e-5, 1.695e+1
0.261, 8.077e-6, -2.221e-5, 1.700e+1
0.260, 8.343e-6, -2.179e-5, 1.705e+1
0.259, 8.639e-6, -2.136e-5, 1.710e+1
0.258, 8.932e-6, -2.091e-5, 1.715e+1
0.257, 9.243e-6, -2.045e-5, 1.720e+1
0.256, 9.507e-6, -1.997e-5, 1.725e+1
0.255, 9.839e-6, -1.948e-5, 1.730e+1
0.254, 1.014e-5, -1.898e-5, 1.735e+1
0.253, 1.047e-5, -1.845e-5, 1.740e+1
0.252, 1.081e-5, -1.791e-5, 1.745e+1
0.251, 1.114e-5, -1.735e-5, 1.750e+1
0.250, 1.148e-5, -1.678e-5, 1.755e+1
0.249, 1.183e-5, -1.619e-5, 1.760e+1
0.248, 1.217e-5, -1.558e-5, 1.765e+1
0.247, 1.253e-5, -1.495e-5, 1.770e+1
0.246, 1.289e-5, -1.431e-5, 1.775e+1
0.245, 1.326e-5, -1.365e-5, 1.780e+1
0.244, 1.361e-5, -1.297e-5, 1.785e+1
0.243, 1.400e-5, -1.227e-5, 1.790e+1
0.242, 1.436e-5, -1.155e-5, 1.795e+1
0.241, 1.474e-5, -1.081e-5, 1.800e+1
0.240, 1.511e-5, -1.006e-5, 1.805e+1
0.239, 1.551e-5, -9.280e-6, 1.810e+1
0.238, 1.588e-5, -8.486e-6, 1.815e+1
0.237, 1.627e-5, -7.672e-6, 1.820e+1
0.236, 1.665e-5, -6.840e-6, 1.825e+1
0.235, 1.704e-5, -5.988e-6, 1.830e+1
0.234, 1.743e-5, -5.116e-6, 1.835e+1
0.233, 1.783e-5, -4.225e-6, 1.840e+1
0.232, 1.820e-5, -3.315e-6, 1.845e+1
0.231, 1.859e-5, -2.386e-6, 1.850e+1
0.230, 1.896e-5, -1.438e-6, 1.855e+1
0.229, 1.935e-5, -4.699e-7, 1.860e+1
0.228, 1.974e-5, 5.169e-7, 1.865e+1
0.227, 2.013e-5, 1.524e-6, 1.870e+1
0.226, 2.049e-5, 2.548e-6, 1.875e+1
0.225, 2.088e-5, 3.592e-6, 1.880e+1
0.224, 2.125e-5, 4.655e-6, 1.885e+1
0.223, 2.162e-5, 5.736e-6, 1.890e+1
0.222, 2.198e-5, 6.835e-6, 1.895e+1
0.221, 2.235e-5, 7.953e-6, 1.900e+1
0.220, 2.269e-5, 9.087e-6, 1.905e+1
0.219, 2.305e-5, 1.024e-5, 1.910e+1
0.218, 2.340e-5, 1.141e-5, 1.915e+1
0.217, 2.374e-5, 1.260e-5, 1.920e+1
0.216, 2.405e-5, 1.380e-5, 1.925e+1
0.215, 2.440e-5, 1.502e-5, 1.930e+1
0.214, 2.468e-5, 1.625e-5, 1.935e+1
0.213, 2.501e-5, 1.750e-5, 1.940e+1
0.212, 2.529e-5, 1.877e-5, 1.945e+1
0.211, 2.559e-5, 2.005e-5, 1.950e+1
0.210, 2.587e-5, 2.134e-5, 1.955e+1
0.209, 2.614e-5, 2.265e-5, 1.960e+1
0.208, 2.639e-5, 2.397e-5, 1.965e+1
0.207, 2.665e-5, 2.530e-5, 1.970e+1
0.206, 2.687e-5, 2.664e-5, 1.975e+1
0.205, 2.718e-5, 2.800e-5, 1.980e+1
0.204, 2.741e-5, 2.937e-5, 1.985e+1
0.203, 2.758e-5, 3.075e-5, 1.990e+1
0.202, 2.778e-5, 3.214e-5, 1.995e+1
0.201, 2.797e-5, 3.354e-5, 2.000e+1
0.200, 2.815e-5, 3.495e-5, 2.005e+1
0.199, 2.832e-5, 3.636e-5, 2.010e+1
0.198, 2.847e-5, 3.779e-5, 2.015e+1
0.197, 2.861e-5, 3.922e-5, 2.020e+1
0.196, 2.875e-5, 4.066e-5, 2.025e+1
0.195, 2.888e-5, 4.210e-5, 2.030e+1
0.194, 2.898e-5, 4.355e-5, 2.035e+1
0.193, 2.910e-5, 4.500e-5, 2.040e+1
0.192, 2.918e-5, 4.646e-5, 2.045e+1
0.191, 2.927e-5, 4.793e-5, 2.050e+1
0.190, 2.934e-5, 4.939e-5, 2.055e+1
0.189, 2.941e-5, 5.086e-5, 2.060e+1
0.188, 2.945e-5, 5.234e-5, 2.065e+1
0.187, 2.949e-5, 5.381e-5, 2.070e+1
0.186, 2.954e-5, 5.529e-5, 2.075e+1
0.185, 2.956e-5, 5.677e-5, 2.080e+1
0.184, 2.958e-5, 5.824e-5, 2.085e+1
0.183, 2.958e-5, 5.972e-5, 2.090e+1
0.182, 2.957e-5, 6.120e-5, 2.095e+1
0.181, 2.957e-5, 6.268e-5, 2.100e+1
0.180, 2.956e-5, 6.416e-5, 2.105e+1
0.179, 2.951e-5, 6.563e-5, 2.110e+1
0.178, 2.948e-5, 6.711e-5, 2.115e+1
0.177, 2.944e-5, 6.858e-5, 2.120e+1
0.176, 2.940e-5, 7.005e-5, 2.125e+1
0.175, 2.936e-5, 7.152e-5, 2.130e+1
0.174, 2.929e-5, 7.298e-5, 2.135e+1
0.173, 2.924e-5, 7.444e-5, 2.140e+1
0.172, 2.916e-5, 7.590e-5, 2.145e+1
0.171, 2.909e-5, 7.736e-5, 2.150e+1
0.170, 2.900e-5, 7.881e-5, 2.155e+1
0.169, 2.892e-5, 8.025e-5, 2.160e+1
0.168, 2.882e-5, 8.169e-5, 2.165e+1
0.167, 2.873e-5, 8.313e-5, 2.170e+1
0.166, 2.863e-5, 8.456e-5, 2.175e+1
0.165, 2.853e-5, 8.599e-5, 2.180e+1
0.164, 2.841e-5, 8.741e-5, 2.185e+1
0.163, 2.830e-5, 8.882e-5, 2.190e+1
0.162, 2.819e-5, 9.023e-5, 2.195e+1
0.161, 2.808e-5, 9.164e-5, 2.200e+1
0.160, 2.796e-5, 9.304e-5, 2.205e+1
0.159, 2.784e-5, 9.443e-5, 2.210e+1
0.158, 2.771e-5, 9.581e-5, 2.215e+1
0.157, 2.759e-5, 9.719e-5, 2.220e+1
0.156, 2.747e-5, 9.857e-5, 2.225e+1
0.155, 2.734e-5, 9.993e-5, 2.230e+1
0.154, 2.719e-5, 1.013e-4, 2.235e+1
0.153, 2.705e-5, 1.026e-4, 2.240e+1
0.152, 2.693e-5, 1.040e-4, 2.245e+1
0.151, 2.680e-5, 1.053e-4, 2.250e+1
0.150, 2.666e-5, 1.067e-4, 2.255e+1
0.149, 2.653e-5, 1.080e-4, 2.260e+1
0.148, 2.639e-5, 1.093e-4, 2.265e+1
0.147, 2.626e-5, 1.106e-4, 2.270e+1
0.146, 2.612e-5, 1.119e-4, 2.275e+1
0.145, 2.599e-5, 1.132e-4, 2.280e+1
0.144, 2.585e-5, 1.145e-4, 2.285e+1
0.143, 2.572e-5, 1.158e-4, 2.290e+1
0.142, 2.558e-5, 1.171e-4, 2.295e+1
0.141, 2.545e-5, 1.184e-4, 2.300e+1
0.140, 2.531e-5, 1.196e-4, 2.305e+1
0.139, 2.518e-5, 1.209e-4, 2.310e+1
0.138, 2.504e-5, 1.221e-4, 2.315e+1
0.137, 2.491e-5, 1.234e-4, 2.320e+1
0.136, 2.477e-5, 1.246e-4, 2.325e+1
0.135, 2.465e-5, 1.259e-4, 2.330e+1
0.134, 2.451e-5, 1.271e-4, 2.335e+1
0.133, 2.439e-5, 1.283e-4, 2.340e+1
0.132, 2.425e-5, 1.295e-4, 2.345e+1
0.131, 2.413e-5, 1.307e-4, 2.350e+1
0.130, 2.400e-5, 1.319e-4, 2.355e+1
0.129, 2.388e-5, 1.331e-4, 2.360e+1
0.128, 2.374e-5, 1.343e-4, 2.365e+1
0.127, 2.362e-5, 1.355e-4, 2.370e+1
0.126, 2.350e-5, 1.367e-4, 2.375e+1
0.125, 2.338e-5, 1.378e-4, 2.380e+1
0.124, 2.326e-5, 1.390e-4, 2.385e+1
0.123, 2.314e-5, 1.401e-4, 2.390e+1
0.122, 2.302e-5, 1.413e-4, 2.395e+1
0.121, 2.291e-5, 1.424e-4, 2.400e+1
0.120, 2.279e-5, 1.436e-4, 2.405e+1
0.119, 2.268e-5, 1.447e-4, 2.410e+1
0.118, 2.257e-5, 1.458e-4, 2.415e+1
0.117, 2.246e-5, 1.470e-4, 2.420e+1
0.116, 2.234e-5, 1.481e-4, 2.425e+1
0.115, 2.224e-5, 1.492e-4, 2.430e+1
0.114, 2.213e-5, 1.503e-4, 2.435e+1
0.113, 2.202e-5, 1.514e-4, 2.440e+1
0.112, 2.192e-5, 1.525e-4, 2.445e+1
0.111, 2.182e-5, 1.536e-4, 2.450e+1
0.110, 2.171e-5, 1.547e-4, 2.455e+1
0.109, 2.161e-5, 1.558e-4, 2.460e+1
0.108, 2.151e-5, 1.568e-4, 2.465e+1
0.107, 2.142e-5, 1.579e-4, 2.470e+1
0.106, 2.132e-5, 1.590e-4, 2.475e+1
0.105, 2.123e-5, 1.600e-4, 2.480e+1
0.104, 2.113e-5, 1.611e-4, 2.485e+1
0.103, 2.104e-5, 1.621e-4, 2.490e+1
0.102, 2.095e-5, 1.632e-4, 2.495e+1
0.101, 2.086e-5, 1.642e-4, 2.500e+1
0.100, 2.077e-5, 1.653e-4, 2.505e+1
0.099, 2.068e-5, 1.663e-4, 2.510e+1
0.098, 2.059e-5, 1.673e-4, 2.515e+1
0.097, 2.051e-5, 1.684e-4, 2.520e+1
0.096, 2.042e-5, 1.694e-4, 2.525e+1
0.095, 2.034e-5, 1.704e-4, 2.530e+1
0.094, 2.026e-5, 1.714e-4, 2.535e+1
0.093, 2.018e-5, 1.724e-4, 2.540e+1
0.092, 2.010e-5, 1.734e-4, 2.545e+1
0.091, 2.002e-5, 1.744e-4, 2.550e+1
0.090, 1.994e-5, 1.754e-4, 2.555e+1
0.089, 1.987e-5, 1.764e-4, 2.560e+1
0.088, 1.979e-5, 1.774e-4, 2.565e+1
0.087, 1.972e-5, 1.784e-4, 2.570e+1
0.086, 1.965e-5, 1.794e-4, 2.575e+1
0.085, 1.957e-5, 1.803e-4, 2.580e+1
0.084, 1.950e-5, 1.813e-4, 2.585e+1
0.083, 1.943e-5, 1.823e-4, 2.590e+1
0.082, 1.936e-5, 1.833e-4, 2.595e+1
0.081, 1.930e-5, 1.842e-4, 2.600e+1
0.080, 1.923e-5, 1.852e-4, 2.605e+1
0.079, 1.917e-5, 1.861e-4, 2.610e+1
0.078, 1.910e-5, 1.871e-4, 2.615e+1
0.077, 1.904e-5, 1.881e-4, 2.620e+1
0.076, 1.897e-5, 1.890e-4, 2.625e+1
0.075, 1.891e-5, 1.899e-4, 2.630e+1
0.074, 1.885e-5, 1.909e-4, 2.635e+1
0.073, 1.879e-5, 1.918e-4, 2.640e+1
0.072, 1.873e-5, 1.928e-4, 2.645e+1
0.071, 1.868e-5, 1.937e-4, 2.650e+1
0.070, 1.862e-5, 1.946e-4, 2.655e+1
0.069, 1.856e-5, 1.956e-4, 2.660e+1
0.068, 1.851e-5, 1.965e-4, 2.665e+1
0.067, 1.845e-5, 1.974e-4, 2.670e+1
0.066, 1.840e-5, 1.983e-4, 2.675e+1
0.065, 1.835e-5, 1.992e-4, 2.680e+1
0.064, 1.829e-5, 2.002e-4, 2.685e+1
0.063, 1.824e-5, 2.011e-4, 2.690e+1
0.062, 1.819e-5, 2.020e-4, 2.695e+1
0.061, 1.814e-5, 2.029e-4, 2.700e+1
0.060, 1.809e-5, 2.038e-4, 2.705e+1
0.059, 1.804e-5, 2.047e-4, 2.710e+1
0.058, 1.800e-5, 2.056e-4, 2.715e+1
0.057, 1.795e-5, 2.065e-4, 2.720e+1
0.056, 1.790e-5, 2.074e-4, 2.725e+1
0.055, 1.786e-5, 2.083e-4, 2.730e+1
0.054, 1.782e-5, 2.092e-4, 2.735e+1
0.053, 1.777e-5, 2.101e-4, 2.740e+1
0.052, 1.773e-5, 2.109e-4, 2.745e+1
0.051, 1.768e-5, 2.118e-4, 2.750e+1
0.050, 1.764e-5, 2.127e-4, 2.755e+1
0.049, 1.761e-5, 2.136e-4, 2.760e+1
0.048, 1.756e-5, 2.145e-4, 2.765e+1
0.047, 1.752e-5, 2.153e-4, 2.770e+1
0.046, 1.748e-5, 2.162e-4, 2.775e+1
0.045, 1.745e-5, 2.171e-4, 2.780e+1
0.044, 1.741e-5, 2.180e-4, 2.785e+1
0.043, 1.737e-5, 2.188e-4, 2.790e+1
0.042, 1.734e-5, 2.197e-4, 2.795e+1
0.041, 1.730e-5, 2.206e-4, 2.800e+1
0.040, 1.726e-5, 2.214e-4, 2.805e+1
0.039, 1.723e-5, 2.223e-4, 2.810e+1
0.038, 1.720e-5, 2.231e-4, 2.815e+1
0.037, 1.716e-5, 2.240e-4, 2.820e+1
0.036, 1.713e-5, 2.249e-4, 2.825e+1
0.035, 1.710e-5, 2.257e-4, 2.830e+1
0.034, 1.707e-5, 2.266e-4, 2.835e+1
0.033, 1.704e-5, 2.274e-4, 2.840e+1
0.032, 1.700e-5, 2.283e-4, 2.845e+1
0.031, 1.698e-5, 2.291e-4, 2.850e+1
0.030, 1.695e-5, 2.300e-4, 2.855e+1
0.029, 1.692e-5, 2.308e-4, 2.860e+1
0.028, 1.689e-5, 2.317e-4, 2.865e+1
0.027, 1.686e-5, 2.325e-4, 2.870e+1
0.026, 1.684e-5, 2.333e-4, 2.875e+1
0.025, 1.681e-5, 2.342e-4, 2.880e+1
0.024, 1.678e-5, 2.350e-4, 2.885e+1
0.023, 1.676e-5, 2.359e-4, 2.890e+1
0.022, 1.674e-5, 2.367e-4, 2.895e+1
0.021, 1.671e-5, 2.375e-4, 2.900e+1
0.020, 1.669e-5, 2.384e-4, 2.905e+1
0.019, 1.667e-5, 2.392e-4, 2.910e+1
0.018, 1.664e-5, 2.400e-4, 2.915e+1
0.017, 1.662e-5, 2.409e-4, 2.920e+1
0.016, 1.660e-5, 2.417e-4, 2.925e+1
0.015, 1.658e-5, 2.425e-4, 2.930e+1
0.014, 1.656e-5, 2.434e-4, 2.935e+1
0.013, 1.654e-5, 2.442e-4, 2.940e+1
0.012, 1.652e-5, 2.450e-4, 2.945e+1
0.011, 1.650e-5, 2.458e-4, 2.950e+1
0.010, 1.648e-5, 2.467e-4, 2.955e+1
0.009, 1.647e-5, 2.475e-4, 2.960e+1
0.008, 1.645e-5, 2.483e-4, 2.965e+1
0.007, 1.644e-5, 2.491e-4, 2.970e+1
0.006, 1.642e-5, 2.499e-4, 2.975e+1
0.005, 1.641e-5, 2.508e-4, 2.980e+1
0.004, 1.639e-5, 2.516e-4, 2.985e+1
0.003, 1.637e-5, 2.524e-4, 2.990e+1
0.002, 1.636e-5, 2.532e-4, 2.995e+1
0.001, 1.635e-5, 2.540e-4, 3.000e+1

Segment 2:
0.000, 1.622e-5, 2.549e-4, 3.005e+1
0.001, 1.606e-5, 2.557e-4, 3.010e+1
0.002, 1.595e-5, 2.565e-4, 3.015e+1
0.003, 1.586e-5, 2.572e-4, 3.020e+1
0.004, 1.577e-5, 2.580e-4, 3.025e+1
0.005, 1.569e-5, 2.588e-4, 3.030e+1
0.006, 1.561e-5, 2.596e-4, 3.035e+1
0.007, 1.553e-5, 2.604e-4, 3.040e+1
0.008, 1.545e-5, 2.611e-4, 3.045e+1
0.009, 1.538e-5, 2.619e-4, 3.050e+1
0.010, 1.530e-5, 2.627e-4, 3.055e+1
0.011, 1.523e-5, 2.634e-4, 3.060e+1
0.012, 1.516e-5, 2.642e-4, 3.065e+1
0.013, 1.510e-5, 2.650e-4, 3.070e+1
0.014, 1.503e-5, 2.657e-4, 3.075e+1
0.015, 1.497e-5, 2.665e-4, 3.080e+1
0.016, 1.490e-5, 2.672e-4, 3.085e+1
0.017, 1.484e-5, 2.679e-4, 3.090e+1
0.018, 1.477e-5, 2.687e-4, 3.095e+1
0.019, 1.471e-5, 2.694e-4, 3.100e+1
0.020, 1.465e-5, 2.701e-4, 3.105e+1
0.021, 1.459e-5, 2.709e-4, 3.110e+1
0.022, 1.453e-5, 2.716e-4, 3.115e+1
0.023, 1.448e-5, 2.723e-4, 3.120e+1
0.024, 1.442e-5, 2.730e-4, 3.125e+1
0.025, 1.437e-5, 2.738e-4, 3.130e+1
0.026, 1.431e-5, 2.745e-4, 3.135e+1
0.027, 1.426e-5, 2.752e-4, 3.140e+1
0.028, 1.420e-5, 2.759e-4, 3.145e+1
0.029, 1.415e-5, 2.766e-4, 3.150e+1
0.030, 1.410e-5, 2.773e-4, 3.155e+1
0.031, 1.405e-5, 2.780e-4, 3.160e+1
0.032, 1.399e-5, 2.787e-4, 3.165e+1
0.033, 1.394e-5, 2.794e-4, 3.170e+1
0.034, 1.389e-5, 2.801e-4, 3.175e+1
0.035, 1.385e-5, 2.808e-4, 3.180e+1
0.036, 1.380e-5, 2.815e-4, 3.185e+1
0.037, 1.375e-5, 2.822e-4, 3.190e+1
0.038, 1.370e-5, 2.829e-4, 3.195e+1
0.039, 1.365e-5, 2.836e-4, 3.200e+1
0.040, 1.361e-5, 2.842e-4, 3.205e+1
0.041, 1.356e-5, 2.849e-4, 3.210e+1
0.042, 1.351e-5, 2.856e-4, 3.215e+1
0.043, 1.347e-5, 2.863e-4, 3.220e+1
0.044, 1.342e-5, 2.869e-4, 3.225e+1
0.045, 1.338e-5, 2.876e-4, 3.230e+1
0.046, 1.333e-5, 2.883e-4, 3.235e+1
0.047, 1.329e-5, 2.889e-4, 3.240e+1
0.048, 1.324e-5, 2.896e-4, 3.245e+1
0.049, 1.320e-5, 2.903e-4, 3.250e+1
0.050, 1.315e-5, 2.909e-4, 3.255e+1
0.051, 1.311e-5, 2.916e-4, 3.260e+1
0.052, 1.307e-5, 2.922e-4, 3.265e+1
0.053, 1.303e-5, 2.929e-4, 3.270e+1
0.054, 1.298e-5, 2.935e-4, 3.275e+1
0.055, 1.294e-5, 2.942e-4, 3.280e+1
0.056, 1.290e-5, 2.948e-4, 3.285e+1
0.057, 1.286e-5, 2.955e-4, 3.290e+1
0.058, 1.281e-5, 2.961e-4, 3.295e+1
0.059, 1.277e-5, 2.967e-4, 3.300e+1
0.060, 1.273e-5, 2.974e-4, 3.305e+1
0.061, 1.269e-5, 2.980e-4, 3.310e+1
0.062, 1.265e-5, 2.986e-4, 3.315e+1
0.063, 1.261e-5, 2.993e-4, 3.320e+1
0.064, 1.256e-5, 2.999e-4, 3.325e+1
0.065, 1.252e-5, 3.005e-4, 3.330e+1
0.066, 1.248e-5, 3.011e-4, 3.335e+1
0.067, 1.244e-5, 3.018e-4, 3.340e+1
0.068, 1.240e-5, 3.024e-4, 3.345e+1
0.069, 1.236e-5, 3.030e-4, 3.350e+1
0.070, 1.232e-5, 3.036e-4, 3.355e+1
0.071, 1.228e-5, 3.042e-4, 3.360e+1
0.072, 1.224e-5, 3.048e-4, 3.365e+1
0.073, 1.219e-5, 3.055e-4, 3.370e+1
0.074, 1.215e-5, 3.061e-4, 3.375e+1
0.075, 1.211e-5, 3.067e-4, 3.380e+1
0.076, 1.207e-5, 3.073e-4, 3.385e+1
0.077, 1.203e-5, 3.079e-4, 3.390e+1
0.078, 1.198e-5, 3.085e-4, 3.395e+1
0.079, 1.194e-5, 3.091e-4, 3.400e+1
0.080, 1.190e-5, 3.097e-4, 3.405e+1
0.081, 1.186e-5, 3.103e-4, 3.410e+1
0.082, 1.181e-5, 3.108e-4, 3.415e+1
0.083, 1.177e-5, 3.114e-4, 3.420e+1
0.084, 1.172e-5, 3.120e-4, 3.425e+1
0.085, 1.168e-5, 3.126e-4, 3.430e+1
0.086, 1.164e-5, 3.132e-4, 3.435e+1
0.087, 1.159e-5, 3.138e-4, 3.440e+1
0.088, 1.155e-5, 3.143e-4, 3.445e+1
0.089, 1.150e-5, 3.149e-4, 3.450e+1
0.090, 1.145e-5, 3.155e-4, 3.455e+1
0.091, 1.141e-5, 3.161e-4, 3.460e+1
0.092, 1.136e-5, 3.166e-4, 3.465e+1
0.093, 1.131e-5, 3.172e-4, 3.470e+1
0.094, 1.126e-5, 3.178e-4, 3.475e+1
0.095, 1.121e-5, 3.183e-4, 3.480e+1
0.096, 1.116e-5, 3.189e-4, 3.485e+1
0.097, 1.111e-5, 3.194e-4, 3.490e+1
0.098, 1.106e-5, 3.200e-4, 3.495e+1
0.099, 1.101e-5, 3.205e-4, 3.500e+1
0.100, 1.096e-5, 3.211e-4, 3.505e+1
0.101, 1.090e-5, 3.216e-4, 3.510e+1
0.102, 1.085e-5, 3.222e-4, 3.515e+1
0.103, 1.079e-5, 3.227e-4, 3.520e+1
0.104, 1.074e-5, 3.232e-4, 3.525e+1
0.105, 1.068e-5, 3.238e-4, 3.530e+1
0.106, 1.062e-5, 3.243e-4, 3.535e+1
0.107, 1.056e-5, 3.248e-4, 3.540e+1
0.108, 1.050e-5, 3.254e-4, 3.545e+1
0.109, 1.044e-5, 3.259e-4, 3.550e+1
0.110, 1.038e-5, 3.264e-4, 3.555e+1
0.111, 1.031e-5, 3.269e-4, 3.560e+1
0.112, 1.025e-5, 3.274e-4, 3.565e+1
0.113, 1.018e-5, 3.279e-4, 3.570e+1
0.114, 1.011e-5, 3.285e-4, 3.575e+1
0.115, 1.004e-5, 3.290e-4, 3.580e+1
0.116, 9.967e-6, 3.295e-4, 3.585e+1
0.117, 9.897e-6, 3.299e-4, 3.590e+1
0.118, 9.819e-6, 3.304e-4, 3.595e+1
0.119, 9.744e-6, 3.309e-4, 3.600e+1
0.120, 9.666e-6, 3.314e-4, 3.605e+1
0.121, 9.584e-6, 3.319e-4, 3.610e+1
0.122, 9.502e-6, 3.324e-4, 3.615e+1
0.123, 9.422e-6, 3.328e-4, 3.620e+1
0.124, 9.331e-6, 3.333e-4, 3.625e+1
0.125, 9.244e-6, 3.338e-4, 3.630e+1
0.126, 9.150e-6, 3.342e-4, 3.635e+1
0.127, 9.056e-6, 3.347e-4, 3.640e+1
0.128, 8.967e-6, 3.351e-4, 3.645e+1
0.129, 8.866e-6, 3.356e-4, 3.650e+1
0.130, 8.767e-6, 3.360e-4, 3.655e+1
0.131, 8.663e-6, 3.364e-4, 3.660e+1
0.132, 8.555e-6, 3.369e-4, 3.665e+1
0.133, 8.452e-6, 3.373e-4, 3.670e+1
0.134, 8.335e-6, 3.377e-4, 3.675e+1
0.135, 8.217e-6, 3.381e-4, 3.680e+1
0.136, 8.102e-6, 3.385e-4, 3.685e+1
0.137, 7.980e-6, 3.389e-4, 3.690e+1
0.138, 7.855e-6, 3.393e-4, 3.695e+1
0.139, 7.728e-6, 3.397e-4, 3.700e+1
0.140, 7.600e-6, 3.401e-4, 3.705e+1
0.141, 7.460e-6, 3.404e-4, 3.710e+1
0.142, 7.325e-6, 3.408e-4, 3.715e+1
0.143, 7.177e-6, 3.412e-4, 3.720e+1
0.144, 7.038e-6, 3.415e-4, 3.725e+1
0.145, 6.882e-6, 3.419e-4, 3.730e+1
0.146, 6.730e-6, 3.422e-4, 3.735e+1
0.147, 6.568e-6, 3.425e-4, 3.740e+1
0.148, 6.406e-6, 3.429e-4, 3.745e+1
0.149, 6.237e-6, 3.432e-4, 3.750e+1
0.150, 6.071e-6, 3.435e-4, 3.755e+1
0.151, 5.891e-6, 3.438e-4, 3.760e+1
0.152, 5.714e-6, 3.441e-4, 3.765e+1
0.153, 5.525e-6, 3.443e-4, 3.770e+1
0.154, 5.350e-6, 3.446e-4, 3.775e+1
0.155, 5.152e-6, 3.449e-4, 3.780e+1
0.156, 4.943e-6, 3.451e-4, 3.785e+1
0.157, 4.735e-6, 3.453e-4, 3.790e+1
0.158, 4.525e-6, 3.456e-4, 3.795e+1
0.159, 4.308e-6, 3.458e-4, 3.800e+1
0.160, 4.084e-6, 3.460e-4, 3.805e+1
0.161, 3.853e-6, 3.462e-4, 3.810e+1
0.162, 3.622e-6, 3.464e-4, 3.815e+1
0.163, 3.386e-6, 3.465e-4, 3.820e+1
0.164, 3.134e-6, 3.467e-4, 3.825e+1
0.165, 2.888e-6, 3.468e-4, 3.830e+1
0.166, 2.630e-6, 3.470e-4, 3.835e+1
0.167, 2.360e-6, 3.471e-4, 3.840e+1
0.168, 2.096e-6, 3.472e-4, 3.845e+1
0.169, 1.817e-6, 3.473e-4, 3.850e+1
0.170, 1.555e-6, 3.473e-4, 3.855e+1
0.171, 1.261e-6, 3.474e-4, 3.860e+1
0.172, 9.731e-7, 3.475e-4, 3.865e+1
0.173, 6.663e-7, 3.475e-4, 3.870e+1
0.174, 3.696e-7, 3.475e-4, 3.875e+1
0.175, 5.428e-8, 3.475e-4, 3.880e+1
0.176, -2.532e-7, 3.475e-4, 3.885e+1
0.177, -5.735e-7, 3.475e-4, 3.890e+1
0.178, -9.052e-7, 3.474e-4, 3.895e+1
0.179, -1.226e-6, 3.474e-4, 3.900e+1
0.180, -1.556e-6, 3.473e-4, 3.905e+1
0.181, -1.910e-6, 3.472e-4, 3.910e+1
0.182, -2.266e-6, 3.471e-4, 3.915e+1
0.183, -2.610e-6, 3.470e-4, 3.920e+1
0.184, -2.964e-6, 3.468e-4, 3.925e+1
0.185, -3.353e-6, 3.466e-4, 3.930e+1
0.186, -3.713e-6, 3.464e-4, 3.935e+1
0.187, -4.087e-6, 3.462e-4, 3.940e+1
0.188, -4.455e-6, 3.460e-4, 3.945e+1
0.189, -4.820e-6, 3.458e-4, 3.950e+1
0.190, -5.209e-6, 3.455e-4, 3.955e+1
0.191, -5.609e-6, 3.452e-4, 3.960e+1
0.192, -5.994e-6, 3.449e-4, 3.965e+1
0.193, -6.396e-6, 3.446e-4, 3.970e+1
0.194, -6.785e-6, 3.443e-4, 3.975e+1
0.195, -7.175e-6, 3.439e-4, 3.980e+1
0.196, -7.588e-6, 3.435e-4, 3.985e+1
0.197, -7.994e-6, 3.431e-4, 3.990e+1
0.198, -8.394e-6, 3.427e-4, 3.995e+1
0.199, -8.791e-6, 3.423e-4, 4.000e+1
0.200, -9.194e-6, 3.418e-4, 4.005e+1
0.201, -9.591e-6, 3.413e-4, 4.010e+1
0.202, -1.000e-5, 3.408e-4, 4.015e+1
0.203, -1.040e-5, 3.403e-4, 4.020e+1
0.204, -1.078e-5, 3.398e-4, 4.025e+1
0.205, -1.128e-5, 3.392e-4, 4.030e+1
0.206, -1.164e-5, 3.386e-4, 4.035e+1
0.207, -1.202e-5, 3.380e-4, 4.040e+1
0.208, -1.241e-5, 3.374e-4, 4.045e+1
0.209, -1.281e-5, 3.368e-4, 4.050e+1
0.210, -1.317e-5, 3.361e-4, 4.055e+1
0.211, -1.355e-5, 3.354e-4, 4.060e+1
0.212, -1.393e-5, 3.347e-4, 4.065e+1
0.213, -1.429e-5, 3.340e-4, 4.070e+1
0.214, -1.464e-5, 3.333e-4, 4.075e+1
0.215, -1.499e-5, 3.325e-4, 4.080e+1
0.216, -1.534e-5, 3.318e-4, 4.085e+1
0.217, -1.570e-5, 3.310e-4, 4.090e+1
0.218, -1.602e-5, 3.302e-4, 4.095e+1
0.219, -1.635e-5, 3.294e-4, 4.100e+1
0.220, -1.667e-5, 3.285e-4, 4.105e+1
0.221, -1.698e-5, 3.277e-4, 4.110e+1
0.222, -1.728e-5, 3.268e-4, 4.115e+1
0.223, -1.756e-5, 3.260e-4, 4.120e+1
0.224, -1.785e-5, 3.251e-4, 4.125e+1
0.225, -1.812e-5, 3.242e-4, 4.130e+1
0.226, -1.837e-5, 3.232e-4, 4.135e+1
0.227, -1.863e-5, 3.223e-4, 4.140e+1
0.228, -1.886e-5, 3.214e-4, 4.145e+1
0.229, -1.910e-5, 3.204e-4, 4.150e+1
0.230, -1.931e-5, 3.194e-4, 4.155e+1
0.231, -1.953e-5, 3.185e-4, 4.160e+1
0.232, -1.971e-5, 3.175e-4, 4.165e+1
0.233, -1.992e-5, 3.165e-4, 4.170e+1
0.234, -2.008e-5, 3.155e-4, 4.175e+1
0.235, -2.026e-5, 3.145e-4, 4.180e+1
0.236, -2.042e-5, 3.134e-4, 4.185e+1
0.237, -2.057e-5, 3.124e-4, 4.190e+1
0.238, -2.069e-5, 3.114e-4, 4.195e+1
0.239, -2.080e-5, 3.103e-4, 4.200e+1
0.240, -2.091e-5, 3.093e-4, 4.205e+1
0.241, -2.102e-5, 3.082e-4, 4.210e+1
0.242, -2.110e-5, 3.072e-4, 4.215e+1
0.243, -2.118e-5, 3.061e-4, 4.220e+1
0.244, -2.125e-5, 3.051e-4, 4.225e+1
0.245, -2.130e-5, 3.040e-4, 4.230e+1
0.246, -2.134e-5, 3.029e-4, 4.235e+1
0.247, -2.140e-5, 3.019e-4, 4.240e+1
0.248, -2.142e-5, 3.008e-4, 4.245e+1
0.249, -2.144e-5, 2.997e-4, 4.250e+1
0.250, -2.144e-5, 2.987e-4, 4.255e+1
0.251, -2.145e-5, 2.976e-4, 4.260e+1
0.252, -2.144e-5, 2.965e-4, 4.265e+1
0.253, -2.143e-5, 2.954e-4, 4.270e+1
0.254, -2.140e-5, 2.944e-4, 4.275e+1
0.255, -2.137e-5, 2.933e-4, 4.280e+1
0.256, -2.129e-5, 2.922e-4, 4.285e+1
0.257, -2.126e-5, 2.912e-4, 4.290e+1
0.258, -2.121e-5, 2.901e-4, 4.295e+1
0.259, -2.116e-5, 2.891e-4, 4.300e+1
0.260, -2.110e-5, 2.880e-4, 4.305e+1
0.261, -2.104e-5, 2.869e-4, 4.310e+1
0.262, -2.096e-5, 2.859e-4, 4.315e+1
0.263, -2.088e-5, 2.849e-4, 4.320e+1
0.264, -2.077e-5, 2.838e-4, 4.325e+1
0.265, -2.070e-5, 2.828e-4, 4.330e+1
0.266, -2.060e-5, 2.817e-4, 4.335e+1
0.267, -2.050e-5, 2.807e-4, 4.340e+1
0.268, -2.040e-5, 2.797e-4, 4.345e+1
0.269, -2.029e-5, 2.787e-4, 4.350e+1
0.270, -2.018e-5, 2.777e-4, 4.355e+1
0.271, -2.007e-5, 2.767e-4, 4.360e+1
0.272, -1.995e-5, 2.757e-4, 4.365e+1
0.273, -1.983e-5, 2.747e-4, 4.370e+1
0.274, -1.971e-5, 2.737e-4, 4.375e+1
0.275, -1.959e-5, 2.727e-4, 4.380e+1
0.276, -1.946e-5, 2.718e-4, 4.385e+1
0.277, -1.933e-5, 2.708e-4, 4.390e+1
0.278, -1.919e-5, 2.698e-4, 4.395e+1
0.279, -1.907e-5, 2.689e-4, 4.400e+1
0.280, -1.893e-5, 2.679e-4, 4.405e+1
0.281, -1.880e-5, 2.670e-4, 4.410e+1
0.282, -1.865e-5, 2.661e-4, 4.415e+1
0.283, -1.852e-5, 2.651e-4, 4.420e+1
0.284, -1.839e-5, 2.642e-4, 4.425e+1
0.285, -1.825e-5, 2.633e-4, 4.430e+1
0.286, -1.811e-5, 2.624e-4, 4.435e+1
0.287, -1.798e-5, 2.615e-4, 4.440e+1
0.288, -1.784e-5, 2.606e-4, 4.445e+1
0.289, -1.770e-5, 2.597e-4, 4.450e+1
0.290, -1.756e-5, 2.588e-4, 4.455e+1
0.291, -1.742e-5, 2.580e-4, 4.460e+1
0.292, -1.729e-5, 2.571e-4, 4.465e+1
0.293, -1.715e-5, 2.562e-4, 4.470e+1
0.294, -1.701e-5, 2.554e-4, 4.475e+1
0.295, -1.688e-5, 2.545e-4, 4.480e+1
0.296, -1.674e-5, 2.537e-4, 4.485e+1
0.297, -1.661e-5, 2.529e-4, 4.490e+1
0.298, -1.647e-5, 2.521e-4, 4.495e+1
0.299, -1.634e-5, 2.512e-4, 4.500e+1
0.300, -1.621e-5, 2.504e-4, 4.505e+1
0.301, -1.608e-5, 2.496e-4, 4.510e+1
0.302, -1.595e-5, 2.488e-4, 4.515e+1
0.303, -1.582e-5, 2.480e-4, 4.520e+1
0.304, -1.569e-5, 2.473e-4, 4.525e+1
0.305, -1.556e-5, 2.465e-4, 4.530e+1
0.306, -1.543e-5, 2.457e-4, 4.535e+1
0.307, -1.531e-5, 2.449e-4, 4.540e+1
0.308, -1.519e-5, 2.442e-4, 4.545e+1
0.309, -1.506e-5, 2.434e-4, 4.550e+1
0.310, -1.494e-5, 2.427e-4, 4.555e+1
0.311, -1.482e-5, 2.419e-4, 4.560e+1
0.312, -1.470e-5, 2.412e-4, 4.565e+1
0.313, -1.458e-5, 2.405e-4, 4.570e+1
0.314, -1.446e-5, 2.398e-4, 4.575e+1
0.315, -1.435e-5, 2.390e-4, 4.580e+1
0.316, -1.423e-5, 2.383e-4, 4.585e+1
0.317, -1.412e-5, 2.376e-4, 4.590e+1
0.318, -1.401e-5, 2.369e-4, 4.595e+1
0.319, -1.390e-5, 2.362e-4, 4.600e+1
0.320, -1.379e-5, 2.355e-4, 4.605e+1
0.321, -1.368e-5, 2.348e-4, 4.610e+1
0.322, -1.357e-5, 2.342e-4, 4.615e+1
0.323, -1.347e-5, 2.335e-4, 4.620e+1
0.324, -1.336e-5, 2.328e-4, 4.625e+1
0.325, -1.326e-5, 2.322e-4, 4.630e+1
0.326, -1.316e-5, 2.315e-4, 4.635e+1
0.327, -1.306e-5, 2.309e-4, 4.640e+1
0.328, -1.296e-5, 2.302e-4, 4.645e+1
0.329, -1.286e-5, 2.296e-4, 4.650e+1
0.330, -1.276e-5, 2.289e-4, 4.655e+1
0.331, -1.267e-5, 2.283e-4, 4.660e+1
0.332, -1.257e-5, 2.277e-4, 4.665e+1
0.333, -1.248e-5, 2.270e-4, 4.670e+1
0.334, -1.239e-5, 2.264e-4, 4.675e+1
0.335, -1.230e-5, 2.258e-4, 4.680e+1
0.336, -1.221e-5, 2.252e-4, 4.685e+1
0.337, -1.212e-5, 2.246e-4, 4.690e+1
0.338, -1.203e-5, 2.240e-4, 4.695e+1
0.339, -1.195e-5, 2.234e-4, 4.700e+1
0.340, -1.186e-5, 2.228e-4, 4.705e+1
0.341, -1.178e-5, 2.222e-4, 4.710e+1
0.342, -1.170e-5, 2.216e-4, 4.715e+1
0.343, -1.161e-5, 2.210e-4, 4.720e+1
0.344, -1.153e-5, 2.205e-4, 4.725e+1
0.345, -1.146e-5, 2.199e-4, 4.730e+1
0.346, -1.137e-5, 2.193e-4, 4.735e+1
0.347, -1.130e-5, 2.188e-4, 4.740e+1
0.348, -1.122e-5, 2.182e-4, 4.745e+1
0.349, -1.114e-5, 2.176e-4, 4.750e+1
0.350, -1.107e-5, 2.171e-4, 4.755e+1
0.351, -1.100e-5, 2.165e-4, 4.760e+1
0.352, -1.092e-5, 2.160e-4, 4.765e+1
0.353, -1.085e-5, 2.154e-4, 4.770e+1
0.354, -1.078e-5, 2.149e-4, 4.775e+1
0.355, -1.071e-5, 2.144e-4, 4.780e+1
0.356, -1.064e-5, 2.138e-4, 4.785e+1
0.357, -1.057e-5, 2.133e-4, 4.790e+1
0.358, -1.050e-5, 2.128e-4, 4.795e+1
0.359, -1.044e-5, 2.123e-4, 4.800e+1
0.360, -1.037e-5, 2.117e-4, 4.805e+1
0.361, -1.031e-5, 2.112e-4, 4.810e+1
0.362, -1.024e-5, 2.107e-4, 4.815e+1
0.363, -1.018e-5, 2.102e-4, 4.820e+1
0.364, -1.012e-5, 2.097e-4, 4.825e+1
0.365, -1.006e-5, 2.092e-4, 4.830e+1
0.366, -9.995e-6, 2.087e-4, 4.835e+1
0.367, -9.936e-6, 2.082e-4, 4.840e+1
0.368, -9.874e-6, 2.077e-4, 4.845e+1
0.369, -9.818e-6, 2.072e-4, 4.850e+1
0.370, -9.758e-6, 2.067e-4, 4.855e+1
0.371, -9.702e-6, 2.062e-4, 4.860e+1
0.372, -9.645e-6, 2.058e-4, 4.865e+1
0.373, -9.590e-6, 2.053e-4, 4.870e+1
0.374, -9.534e-6, 2.048e-4, 4.875e+1
0.375, -9.480e-6, 2.043e-4, 4.880e+1
0.376, -9.424e-6, 2.039e-4, 4.885e+1
0.377, -9.373e-6, 2.034e-4, 4.890e+1
0.378, -9.320e-6, 2.029e-4, 4.895e+1
0.379, -9.268e-6, 2.025e-4, 4.900e+1
0.380, -9.217e-6, 2.020e-4, 4.905e+1
0.381, -9.166e-6, 2.015e-4, 4.910e+1
0.382, -9.115e-6, 2.011e-4, 4.915e+1
0.383, -9.067e-6, 2.006e-4, 4.920e+1
0.384, -9.017e-6, 2.002e-4, 4.925e+1
0.385, -8.970e-6, 1.997e-4, 4.930e+1
0.386, -8.922e-6, 1.993e-4, 4.935e+1
0.387, -8.875e-6, 1.988e-4, 4.940e+1
0.388, -8.828e-6, 1.984e-4, 4.945e+1
0.389, -8.782e-6, 1.980e-4, 4.950e+1
0.390, -8.737e-6, 1.975e-4, 4.955e+1
0.391, -8.692e-6, 1.971e-4, 4.960e+1
0.392, -8.647e-6, 1.967e-4, 4.965e+1
0.393, -8.604e-6, 1.962e-4, 4.970e+1
0.394, -8.560e-6, 1.958e-4, 4.975e+1
0.395, -8.517e-6, 1.954e-4, 4.980e+1
0.396, -8.474e-6, 1.950e-4, 4.985e+1
0.397, -8.432e-6, 1.945e-4, 4.990e+1
0.398, -8.390e-6, 1.941e-4, 4.995e+1
0.399, -8.350e-6, 1.937e-4, 5.000e+1
0.400, -8.308e-6, 1.933e-4, 5.005e+1
0.401, -8.269e-6, 1.929e-4, 5.010e+1
0.402, -8.229e-6, 1.925e-4, 5.015e+1
0.403, -8.190e-6, 1.920e-4, 5.020e+1
0.404, -8.151e-6, 1.916e-4, 5.025e+1
0.405, -8.112e-6, 1.912e-4, 5.030e+1
0.406, -8.074e-6, 1.908e-4, 5.035e+1
0.407, -8.037e-6, 1.904e-4, 5.040e+1
0.408, -7.998e-6, 1.900e-4, 5.045e+1
0.409, -7.960e-6, 1.896e-4, 5.050e+1
0.410, -7.922e-6, 1.892e-4, 5.055e+1
0.411, -7.888e-6, 1.888e-4, 5.060e+1
0.412, -7.853e-6, 1.884e-4, 5.065e+1
0.413, -7.818e-6, 1.881e-4, 5.070e+1
0.414, -7.783e-6, 1.877e-4, 5.075e+1
0.415, -7.748e-6, 1.873e-4, 5.080e+1
0.416, -7.715e-6, 1.869e-4, 5.085e+1
0.417, -7.681e-6, 1.865e-4, 5.090e+1
0.418, -7.647e-6, 1.861e-4, 5.095e+1
0.419, -7.614e-6, 1.857e-4, 5.100e+1
0.420, -7.581e-6, 1.854e-4, 5.105e+1
0.421, -7.549e-6, 1.850e-4, 5.110e+1
0.422, -7.517e-6, 1.846e-4, 5.115e+1
0.423, -7.485e-6, 1.842e-4, 5.120e+1
0.424, -7.454e-6, 1.839e-4, 5.125e+1
0.425, -7.422e-6, 1.835e-4, 5.130e+1
0.426, -7.392e-6, 1.831e-4, 5.135e+1
0.427, -7.361e-6, 1.828e-4, 5.140e+1
0.428, -7.332e-6, 1.824e-4, 5.145e+1
0.429, -7.302e-6, 1.820e-4, 5.150e+1
0.430, -7.272e-6, 1.817e-4, 5.155e+1
0.431, -7.242e-6, 1.813e-4, 5.160e+1
0.432, -7.213e-6, 1.809e-4, 5.165e+1
0.433, -7.185e-6, 1.806e-4, 5.170e+1
0.434, -7.157e-6, 1.802e-4, 5.175e+1
0.435, -7.127e-6, 1.799e-4, 5.180e+1
0.436, -7.100e-6, 1.795e-4, 5.185e+1
0.437, -7.072e-6, 1.792e-4, 5.190e+1
0.438, -7.046e-6, 1.788e-4, 5.195e+1
0.439, -7.017e-6, 1.785e-4, 5.200e+1
0.440, -6.990e-6, 1.781e-4, 5.205e+1
0.441, -6.965e-6, 1.778e-4, 5.210e+1
0.442, -6.939e-6, 1.774e-4, 5.215e+1
0.443, -6.912e-6, 1.771e-4, 5.220e+1
0.444, -6.886e-6, 1.767e-4, 5.225e+1
0.445, -6.860e-6, 1.764e-4, 5.230e+1
0.446, -6.835e-6, 1.760e-4, 5.235e+1
0.447, -6.811e-6, 1.757e-4, 5.240e+1
0.448, -6.786e-6, 1.754e-4, 5.245e+1
0.449, -6.761e-6, 1.750e-4, 5.250e+1
0.450, -6.736e-6, 1.747e-4, 5.255e+1
0.451, -6.712e-6, 1.743e-4, 5.260e+1
0.452, -6.689e-6, 1.740e-4, 5.265e+1
0.453, -6.664e-6, 1.737e-4, 5.270e+1
0.454, -6.641e-6, 1.733e-4, 5.275e+1
0.455, -6.618e-6, 1.730e-4, 5.280e+1
0.456, -6.594e-6, 1.727e-4, 5.285e+1
0.457, -6.572e-6, 1.724e-4, 5.290e+1
0.458, -6.550e-6, 1.720e-4, 5.295e+1
0.459, -6.527e-6, 1.717e-4, 5.300e+1
0.460, -6.505e-6, 1.714e-4, 5.305e+1
0.461, -6.481e-6, 1.711e-4, 5.310e+1
0.462, -6.461e-6, 1.707e-4, 5.315e+1
0.463, -6.439e-6, 1.704e-4, 5.320e+1
0.464, -6.418e-6, 1.701e-4, 5.325e+1
0.465, -6.397e-6, 1.698e-4, 5.330e+1
0.466, -6.376e-6, 1.694e-4, 5.335e+1
0.467, -6.354e-6, 1.691e-4, 5.340e+1
0.468, -6.335e-6, 1.688e-4, 5.345e+1
0.469, -6.313e-6, 1.685e-4, 5.350e+1
0.470, -6.294e-6, 1.682e-4, 5.355e+1
0.471, -6.273e-6, 1.679e-4, 5.360e+1
0.472, -6.254e-6, 1.676e-4, 5.365e+1
0.473, -6.234e-6, 1.672e-4, 5.370e+1
0.474, -6.215e-6, 1.669e-4, 5.375e+1
0.475, -6.195e-6, 1.666e-4, 5.380e+1
0.476, -6.176e-6, 1.663e-4, 5.385e+1
0.477, -6.156e-6, 1.660e-4, 5.390e+1
0.478, -6.138e-6, 1.657e-4, 5.395e+1
0.479, -6.119e-6, 1.654e-4, 5.400e+1
0.480, -6.101e-6, 1.651e-4, 5.405e+1
0.481, -6.083e-6, 1.648e-4, 5.410e+1
0.482, -6.065e-6, 1.645e-4, 5.415e+1
0.483, -6.047e-6, 1.642e-4, 5.420e+1
0.484, -6.030e-6, 1.639e-4, 5.425e+1
0.485, -6.011e-6, 1.636e-4, 5.430e+1
0.486, -5.994e-6, 1.633e-4, 5.435e+1
0.487, -5.977e-6, 1.630e-4, 5.440e+1
0.488, -5.959e-6, 1.627e-4, 5.445e+1
0.489, -5.943e-6, 1.624e-4, 5.450e+1
0.490, -5.926e-6, 1.621e-4, 5.455e+1
0.491, -5.908e-6, 1.618e-4, 5.460e+1
0.492, -5.893e-6, 1.615e-4, 5.465e+1
0.493, -5.876e-6, 1.612e-4, 5.470e+1
0.494, -5.860e-6, 1.609e-4, 5.475e+1
0.495, -5.844e-6, 1.606e-4, 5.480e+1
0.496, -5.828e-6, 1.603e-4, 5.485e+1
0.497, -5.813e-6, 1.600e-4, 5.490e+1
0.498, -5.798e-6, 1.597e-4, 5.495e+1
0.499, -5.781e-6, 1.595e-4, 5.500e+1
0.500, -5.767e-6, 1.592e-4, 5.505e+1
0.501, -5.750e-6, 1.589e-4, 5.510e+1
0.502, -5.736e-6, 1.586e-4, 5.515e+1
0.503, -5.721e-6, 1.583e-4, 5.520e+1
0.504, -5.707e-6, 1.580e-4, 5.525e+1
0.505, -5.691e-6, 1.577e-4, 5.530e+1
0.506, -5.678e-6, 1.575e-4, 5.535e+1
0.507, -5.663e-6, 1.572e-4, 5.540e+1
0.508, -5.650e-6, 1.569e-4, 5.545e+1
0.509, -5.634e-6, 1.566e-4, 5.550e+1
0.510, -5.621e-6, 1.563e-4, 5.555e+1
0.511, -5.608e-6, 1.560e-4, 5.560e+1
0.512, -5.595e-6, 1.558e-4, 5.565e+1
0.513, -5.580e-6, 1.555e-4, 5.570e+1
0.514, -5.568e-6, 1.552e-4, 5.575e+1
0.515, -5.553e-6, 1.549e-4, 5.580e+1
0.516, -5.541e-6, 1.547e-4, 5.585e+1
0.517, -5.527e-6, 1.544e-4, 5.590e+1
0.518, -5.515e-6, 1.541e-4, 5.595e+1
0.519, -5.502e-6, 1.538e-4, 5.600e+1
0.520, -5.489e-6, 1.536e-4, 5.605e+1
0.521, -5.477e-6, 1.533e-4, 5.610e+1
0.522, -5.465e-6, 1.530e-4, 5.615e+1
0.523, -5.452e-6, 1.527e-4, 5.620e+1
0.524, -5.441e-6, 1.525e-4, 5.625e+1
0.525, -5.428e-6, 1.522e-4, 5.630e+1
0.526, -5.416e-6, 1.519e-4, 5.635e+1
0.527, -5.404e-6, 1.516e-4, 5.640e+1
0.528, -5.394e-6, 1.514e-4, 5.645e+1
0.529, -5.381e-6, 1.511e-4, 5.650e+1
0.530, -5.371e-6, 1.508e-4, 5.655e+1
0.531, -5.358e-6, 1.506e-4, 5.660e+1
0.532, -5.349e-6, 1.503e-4, 5.665e+1
0.533, -5.336e-6, 1.500e-4, 5.670e+1
0.534, -5.327e-6, 1.498e-4, 5.675e+1
0.535, -5.315e-6, 1.495e-4, 5.680e+1
0.536, -5.305e-6, 1.492e-4, 5.685e+1
0.537, -5.293e-6, 1.490e-4, 5.690e+1
0.538, -5.284e-6, 1.487e-4, 5.695e+1
0.539, -5.272e-6, 1.485e-4, 5.700e+1
0.540, -5.264e-6, 1.482e-4, 5.705e+1
0.541, -5.252e-6, 1.479e-4, 5.710e+1
0.542, -5.243e-6, 1.477e-4, 5.715e+1
0.543, -5.234e-6, 1.474e-4, 5.720e+1
0.544, -5.224e-6, 1.471e-4, 5.725e+1
0.545, -5.213e-6, 1.469e-4, 5.730e+1
0.546, -5.205e-6, 1.466e-4, 5.735e+1
0.547, -5.194e-6, 1.464e-4, 5.740e+1
0.548, -5.187e-6, 1.461e-4, 5.745e+1
0.549, -5.176e-6, 1.458e-4, 5.750e+1
0.550, -5.168e-6, 1.456e-4, 5.755e+1
0.551, -5.158e-6, 1.453e-4, 5.760e+1
0.552, -5.149e-6, 1.451e-4, 5.765e+1
0.553, -5.140e-6, 1.448e-4, 5.770e+1
0.554, -5.132e-6, 1.446e-4, 5.775e+1
0.555, -5.122e-6, 1.443e-4, 5.780e+1
0.556, -5.116e-6, 1.440e-4, 5.785e+1
0.557, -5.105e-6, 1.438e-4, 5.790e+1
0.558, -5.098e-6, 1.435e-4, 5.795e+1
0.559, -5.090e-6, 1.433e-4, 5.800e+1
0.560, -5.083e-6, 1.430e-4, 5.805e+1
0.561, -5.074e-6, 1.428e-4, 5.810e+1
0.562, -5.067e-6, 1.425e-4, 5.815e+1
0.563, -5.056e-6, 1.423e-4, 5.820e+1
0.564, -5.051e-6, 1.420e-4, 5.825e+1
0.565, -5.042e-6, 1.418e-4, 5.830e+1
0.566, -5.036e-6, 1.415e-4, 5.835e+1
0.567, -5.028e-6, 1.413e-4, 5.840e+1
0.568, -5.021e-6, 1.410e-4, 5.845e+1
0.569, -5.014e-6, 1.408e-4, 5.850e+1
0.570, -5.008e-6, 1.405e-4, 5.855e+1
0.571, -4.999e-6, 1.403e-4, 5.860e+1
0.572, -4.994e-6, 1.400e-4, 5.865e+1
0.573, -4.986e-6, 1.398e-4, 5.870e+1
0.574, -4.980e-6, 1.395e-4, 5.875e+1
0.575, -4.974e-6, 1.393e-4, 5.880e+1
0.576, -4.968e-6, 1.390e-4, 5.885e+1
0.577, -4.960e-6, 1.388e-4, 5.890e+1
0.578, -4.955e-6, 1.385e-4, 5.895e+1
0.579, -4.947e-6, 1.383e-4, 5.900e+1
0.580, -4.943e-6, 1.380e-4, 5.905e+1
0.581, -4.936e-6, 1.378e-4, 5.910e+1
0.582, -4.931e-6, 1.375e-4, 5.915e+1
0.583, -4.924e-6, 1.373e-4, 5.920e+1
0.584, -4.920e-6, 1.370e-4, 5.925e+1
0.585, -4.913e-6, 1.368e-4, 5.930e+1
0.586, -4.909e-6, 1.365e-4, 5.935e+1
0.587, -4.901e-6, 1.363e-4, 5.940e+1
0.588, -4.898e-6, 1.361e-4, 5.945e+1
0.589, -4.891e-6, 1.358e-4, 5.950e+1
0.590, -4.887e-6, 1.356e-4, 5.955e+1
0.591, -4.882e-6, 1.353e-4, 5.960e+1
0.592, -4.878e-6, 1.351e-4, 5.965e+1
0.593, -4.873e-6, 1.348e-4, 5.970e+1
0.594, -4.869e-6, 1.346e-4, 5.975e+1
0.595, -4.863e-6, 1.343e-4, 5.980e+1
0.596, -4.860e-6, 1.341e-4, 5.985e+1
0.597, -4.853e-6, 1.339e-4, 5.990e+1
0.598, -4.851e-6, 1.336e-4, 5.995e+1
0.599, -4.846e-6, 1.334e-4, 6.000e+1
