May 18, 2026   16:46:30
A.C. Impedance
File: 5
Data Source:  Experiment
Instrument Model:  CHI660D
Header: 
Note: 

Init E (V) = 0
High Frequency (Hz) = 1e+5
Low Frequency (Hz) = 0.1
Imp SF
Amplitude (V) = 0.005
Quiet Time (sec) = 2
Cycles (.1-1Hz) = 1

Freq/Hz, Z'/ohm, Z"/ohm, Z/ohm, Phase/deg

8.252e+4, 3.712e+1, 1.150e-1, 3.712e+1, 0.2
6.812e+4, 3.733e+1, -1.226e+0, 3.735e+1, -1.9
5.615e+4, 3.752e+1, -2.520e+0, 3.760e+1, -3.8
4.639e+4, 3.772e+1, -3.899e+0, 3.792e+1, -5.9
3.833e+4, 3.789e+1, -5.310e+0, 3.826e+1, -8.0
3.174e+4, 3.806e+1, -6.886e+0, 3.868e+1, -10.3
2.612e+4, 3.822e+1, -8.679e+0, 3.919e+1, -12.8
2.148e+4, 3.840e+1, -1.075e+1, 3.988e+1, -15.6
1.782e+4, 3.859e+1, -1.318e+1, 4.078e+1, -18.9
1.465e+4, 3.879e+1, -1.604e+1, 4.197e+1, -22.5
1.221e+4, 3.902e+1, -1.944e+1, 4.359e+1, -26.5
1.001e+4, 3.926e+1, -2.352e+1, 4.577e+1, -30.9
8.301e+3, 3.956e+1, -2.839e+1, 4.869e+1, -35.7
6.836e+3, 3.997e+1, -3.428e+1, 5.266e+1, -40.6
5.615e+3, 4.051e+1, -4.136e+1, 5.789e+1, -45.6
4.639e+3, 4.117e+1, -4.953e+1, 6.441e+1, -50.3
3.906e+3, 4.201e+1, -5.941e+1, 7.276e+1, -54.7
3.174e+3, 4.304e+1, -7.108e+1, 8.309e+1, -58.8
2.686e+3, 4.435e+1, -8.497e+1, 9.585e+1, -62.4
2.197e+3, 4.628e+1, -1.039e+2, 1.137e+2, -66.0
1.709e+3, 4.872e+1, -1.264e+2, 1.355e+2, -68.9
1.465e+3, 5.159e+1, -1.511e+2, 1.597e+2, -71.1
1.221e+3, 5.553e+1, -1.818e+2, 1.901e+2, -73.0
9.766e+2, 6.067e+1, -2.183e+2, 2.266e+2, -74.5
8.252e+2, 6.716e+1, -2.603e+2, 2.688e+2, -75.5
6.836e+2, 7.583e+1, -3.112e+2, 3.203e+2, -76.3
5.615e+2, 8.741e+1, -3.725e+2, 3.827e+2, -76.8
4.639e+2, 1.030e+2, -4.467e+2, 4.584e+2, -77.0
3.809e+2, 1.237e+2, -5.338e+2, 5.480e+2, -77.0
3.174e+2, 1.519e+2, -6.377e+2, 6.555e+2, -76.6
2.588e+2, 1.900e+2, -7.604e+2, 7.838e+2, -76.0
2.148e+2, 2.419e+2, -9.046e+2, 9.364e+2, -75.0
1.758e+2, 3.112e+2, -1.071e+3, 1.115e+3, -73.8
1.465e+2, 4.016e+2, -1.255e+3, 1.318e+3, -72.3
1.221e+2, 5.299e+2, -1.473e+3, 1.565e+3, -70.2
9.766e+1, 6.959e+2, -1.712e+3, 1.848e+3, -67.9
8.254e+1, 9.030e+2, -1.961e+3, 2.159e+3, -65.3
6.813e+1, 1.169e+3, -2.221e+3, 2.510e+3, -62.2
5.623e+1, 1.500e+3, -2.475e+3, 2.894e+3, -58.8
4.642e+1, 1.899e+3, -2.709e+3, 3.309e+3, -55.0
3.831e+1, 2.362e+3, -2.901e+3, 3.741e+3, -50.8
3.162e+1, 2.872e+3, -3.030e+3, 4.175e+3, -46.5
2.610e+1, 3.408e+3, -3.082e+3, 4.595e+3, -42.1
2.154e+1, 3.943e+3, -3.054e+3, 4.987e+3, -37.8
1.778e+1, 4.451e+3, -2.950e+3, 5.340e+3, -33.5
1.468e+1, 4.914e+3, -2.786e+3, 5.649e+3, -29.6
1.212e+1, 5.316e+3, -2.584e+3, 5.911e+3, -25.9
1.000e+1, 5.647e+3, -2.356e+3, 6.119e+3, -22.6
8.254e+0, 5.916e+3, -2.126e+3, 6.287e+3, -19.8
6.813e+0, 6.143e+3, -1.914e+3, 6.434e+3, -17.3
5.623e+0, 6.334e+3, -1.724e+3, 6.564e+3, -15.2
4.642e+0, 6.495e+3, -1.557e+3, 6.679e+3, -13.5
3.831e+0, 6.636e+3, -1.398e+3, 6.782e+3, -11.9
3.162e+0, 6.758e+3, -1.266e+3, 6.876e+3, -10.6
2.610e+0, 6.858e+3, -1.175e+3, 6.958e+3, -9.7
2.154e+0, 6.960e+3, -1.104e+3, 7.047e+3, -9.0
1.778e+0, 7.065e+3, -1.051e+3, 7.143e+3, -8.5
1.468e+0, 7.159e+3, -1.015e+3, 7.231e+3, -8.1
1.212e+0, 7.245e+3, -9.964e+2, 7.313e+3, -7.8
1.000e+0, 7.390e+3, -9.833e+2, 7.455e+3, -7.6
8.254e-1, 7.514e+3, -9.937e+2, 7.580e+3, -7.5
6.813e-1, 7.558e+3, -1.037e+3, 7.629e+3, -7.8
5.623e-1, 7.604e+3, -1.096e+3, 7.683e+3, -8.2
4.642e-1, 7.665e+3, -1.169e+3, 7.754e+3, -8.7
3.831e-1, 7.757e+3, -1.248e+3, 7.857e+3, -9.1
3.162e-1, 7.868e+3, -1.338e+3, 7.981e+3, -9.7
2.610e-1, 8.002e+3, -1.441e+3, 8.131e+3, -10.2
2.154e-1, 8.144e+3, -1.558e+3, 8.291e+3, -10.8
1.778e-1, 8.291e+3, -1.687e+3, 8.461e+3, -11.5
1.468e-1, 8.452e+3, -1.832e+3, 8.648e+3, -12.2
1.212e-1, 8.637e+3, -2.001e+3, 8.866e+3, -13.0
1.000e-1, 8.852e+3, -2.198e+3, 9.121e+3, -13.9
