May 18, 2026   16:01:24
Cyclic Voltammetry
File: 50mv_s.bin
Data Source:  Experiment
Instrument Model:  CHI660D
Header: 
Note: 

Init E (V) = 0.6
High E (V) = 0.6
Low E (V) = 0
Init P/N = N
Scan Rate (V/s) = 0.05
Segment = 2
Sample Interval (V) = 0.001
Quiet Time (sec) = 2
Sensitivity (A/V) = 1e-5

Segment 1:
Ep = 0.181V
Eh = 0.241V
ip = 4.597e-5A
Ah = 6.013e-5C

Segment 2:
Ep = 0.252V
Eh = 0.193V
ip = -4.026e-5A
Ah = -5.096e-5C

Potential/V, Current/A, Charge/C, Time/s

Segment 1:
0.600, -4.691e-6, -9.382e-8, 2.000e-2
0.599, -4.531e-6, -1.844e-7, 4.000e-2
0.598, -4.464e-6, -2.737e-7, 6.000e-2
0.597, -4.418e-6, -3.621e-7, 8.000e-2
0.596, -4.379e-6, -4.497e-7, 1.000e-1
0.595, -4.343e-6, -5.365e-7, 1.200e-1
0.594, -4.310e-6, -6.227e-7, 1.400e-1
0.593, -4.275e-6, -7.082e-7, 1.600e-1
0.592, -4.243e-6, -7.931e-7, 1.800e-1
0.591, -4.209e-6, -8.773e-7, 2.000e-1
0.590, -4.181e-6, -9.609e-7, 2.200e-1
0.589, -4.151e-6, -1.044e-6, 2.400e-1
0.588, -4.122e-6, -1.126e-6, 2.600e-1
0.587, -4.094e-6, -1.208e-6, 2.800e-1
0.586, -4.065e-6, -1.290e-6, 3.000e-1
0.585, -4.037e-6, -1.370e-6, 3.200e-1
0.584, -4.011e-6, -1.450e-6, 3.400e-1
0.583, -3.984e-6, -1.530e-6, 3.600e-1
0.582, -3.958e-6, -1.609e-6, 3.800e-1
0.581, -3.932e-6, -1.688e-6, 4.000e-1
0.580, -3.907e-6, -1.766e-6, 4.200e-1
0.579, -3.883e-6, -1.844e-6, 4.400e-1
0.578, -3.858e-6, -1.921e-6, 4.600e-1
0.577, -3.834e-6, -1.998e-6, 4.800e-1
0.576, -3.811e-6, -2.074e-6, 5.000e-1
0.575, -3.787e-6, -2.150e-6, 5.200e-1
0.574, -3.766e-6, -2.225e-6, 5.400e-1
0.573, -3.742e-6, -2.300e-6, 5.600e-1
0.572, -3.719e-6, -2.374e-6, 5.800e-1
0.571, -3.699e-6, -2.448e-6, 6.000e-1
0.570, -3.678e-6, -2.522e-6, 6.200e-1
0.569, -3.656e-6, -2.595e-6, 6.400e-1
0.568, -3.635e-6, -2.667e-6, 6.600e-1
0.567, -3.615e-6, -2.740e-6, 6.800e-1
0.566, -3.593e-6, -2.812e-6, 7.000e-1
0.565, -3.575e-6, -2.883e-6, 7.200e-1
0.564, -3.554e-6, -2.954e-6, 7.400e-1
0.563, -3.538e-6, -3.025e-6, 7.600e-1
0.562, -3.517e-6, -3.095e-6, 7.800e-1
0.561, -3.497e-6, -3.165e-6, 8.000e-1
0.560, -3.478e-6, -3.235e-6, 8.200e-1
0.559, -3.458e-6, -3.304e-6, 8.400e-1
0.558, -3.441e-6, -3.373e-6, 8.600e-1
0.557, -3.423e-6, -3.441e-6, 8.800e-1
0.556, -3.404e-6, -3.509e-6, 9.000e-1
0.555, -3.387e-6, -3.577e-6, 9.200e-1
0.554, -3.370e-6, -3.644e-6, 9.400e-1
0.553, -3.353e-6, -3.712e-6, 9.600e-1
0.552, -3.335e-6, -3.778e-6, 9.800e-1
0.551, -3.318e-6, -3.845e-6, 1.000e+0
0.550, -3.302e-6, -3.911e-6, 1.020e+0
0.549, -3.285e-6, -3.976e-6, 1.040e+0
0.548, -3.269e-6, -4.042e-6, 1.060e+0
0.547, -3.253e-6, -4.107e-6, 1.080e+0
0.546, -3.237e-6, -4.171e-6, 1.100e+0
0.545, -3.221e-6, -4.236e-6, 1.120e+0
0.544, -3.206e-6, -4.300e-6, 1.140e+0
0.543, -3.189e-6, -4.364e-6, 1.160e+0
0.542, -3.175e-6, -4.427e-6, 1.180e+0
0.541, -3.160e-6, -4.490e-6, 1.200e+0
0.540, -3.144e-6, -4.553e-6, 1.220e+0
0.539, -3.130e-6, -4.616e-6, 1.240e+0
0.538, -3.115e-6, -4.678e-6, 1.260e+0
0.537, -3.101e-6, -4.740e-6, 1.280e+0
0.536, -3.086e-6, -4.802e-6, 1.300e+0
0.535, -3.071e-6, -4.863e-6, 1.320e+0
0.534, -3.057e-6, -4.925e-6, 1.340e+0
0.533, -3.045e-6, -4.985e-6, 1.360e+0
0.532, -3.030e-6, -5.046e-6, 1.380e+0
0.531, -3.016e-6, -5.106e-6, 1.400e+0
0.530, -3.002e-6, -5.166e-6, 1.420e+0
0.529, -2.988e-6, -5.226e-6, 1.440e+0
0.528, -2.976e-6, -5.286e-6, 1.460e+0
0.527, -2.964e-6, -5.345e-6, 1.480e+0
0.526, -2.950e-6, -5.404e-6, 1.500e+0
0.525, -2.936e-6, -5.463e-6, 1.520e+0
0.524, -2.924e-6, -5.521e-6, 1.540e+0
0.523, -2.912e-6, -5.579e-6, 1.560e+0
0.522, -2.899e-6, -5.637e-6, 1.580e+0
0.521, -2.887e-6, -5.695e-6, 1.600e+0
0.520, -2.874e-6, -5.753e-6, 1.620e+0
0.519, -2.861e-6, -5.810e-6, 1.640e+0
0.518, -2.849e-6, -5.867e-6, 1.660e+0
0.517, -2.837e-6, -5.924e-6, 1.680e+0
0.516, -2.825e-6, -5.980e-6, 1.700e+0
0.515, -2.814e-6, -6.036e-6, 1.720e+0
0.514, -2.801e-6, -6.092e-6, 1.740e+0
0.513, -2.790e-6, -6.148e-6, 1.760e+0
0.512, -2.778e-6, -6.204e-6, 1.780e+0
0.511, -2.767e-6, -6.259e-6, 1.800e+0
0.510, -2.755e-6, -6.314e-6, 1.820e+0
0.509, -2.745e-6, -6.369e-6, 1.840e+0
0.508, -2.733e-6, -6.424e-6, 1.860e+0
0.507, -2.724e-6, -6.478e-6, 1.880e+0
0.506, -2.711e-6, -6.532e-6, 1.900e+0
0.505, -2.700e-6, -6.586e-6, 1.920e+0
0.504, -2.690e-6, -6.640e-6, 1.940e+0
0.503, -2.679e-6, -6.694e-6, 1.960e+0
0.502, -2.669e-6, -6.747e-6, 1.980e+0
0.501, -2.658e-6, -6.800e-6, 2.000e+0
0.500, -2.648e-6, -6.853e-6, 2.020e+0
0.499, -2.636e-6, -6.906e-6, 2.040e+0
0.498, -2.627e-6, -6.959e-6, 2.060e+0
0.497, -2.616e-6, -7.011e-6, 2.080e+0
0.496, -2.606e-6, -7.063e-6, 2.100e+0
0.495, -2.596e-6, -7.115e-6, 2.120e+0
0.494, -2.587e-6, -7.167e-6, 2.140e+0
0.493, -2.575e-6, -7.218e-6, 2.160e+0
0.492, -2.565e-6, -7.269e-6, 2.180e+0
0.491, -2.556e-6, -7.321e-6, 2.200e+0
0.490, -2.546e-6, -7.372e-6, 2.220e+0
0.489, -2.537e-6, -7.422e-6, 2.240e+0
0.488, -2.527e-6, -7.473e-6, 2.260e+0
0.487, -2.517e-6, -7.523e-6, 2.280e+0
0.486, -2.509e-6, -7.573e-6, 2.300e+0
0.485, -2.499e-6, -7.623e-6, 2.320e+0
0.484, -2.489e-6, -7.673e-6, 2.340e+0
0.483, -2.481e-6, -7.723e-6, 2.360e+0
0.482, -2.470e-6, -7.772e-6, 2.380e+0
0.481, -2.462e-6, -7.821e-6, 2.400e+0
0.480, -2.453e-6, -7.870e-6, 2.420e+0
0.479, -2.443e-6, -7.919e-6, 2.440e+0
0.478, -2.435e-6, -7.968e-6, 2.460e+0
0.477, -2.425e-6, -8.016e-6, 2.480e+0
0.476, -2.415e-6, -8.065e-6, 2.500e+0
0.475, -2.408e-6, -8.113e-6, 2.520e+0
0.474, -2.398e-6, -8.161e-6, 2.540e+0
0.473, -2.389e-6, -8.209e-6, 2.560e+0
0.472, -2.380e-6, -8.256e-6, 2.580e+0
0.471, -2.372e-6, -8.304e-6, 2.600e+0
0.470, -2.363e-6, -8.351e-6, 2.620e+0
0.469, -2.355e-6, -8.398e-6, 2.640e+0
0.468, -2.345e-6, -8.445e-6, 2.660e+0
0.467, -2.337e-6, -8.492e-6, 2.680e+0
0.466, -2.329e-6, -8.538e-6, 2.700e+0
0.465, -2.320e-6, -8.585e-6, 2.720e+0
0.464, -2.313e-6, -8.631e-6, 2.740e+0
0.463, -2.304e-6, -8.677e-6, 2.760e+0
0.462, -2.295e-6, -8.723e-6, 2.780e+0
0.461, -2.289e-6, -8.769e-6, 2.800e+0
0.460, -2.280e-6, -8.814e-6, 2.820e+0
0.459, -2.272e-6, -8.860e-6, 2.840e+0
0.458, -2.262e-6, -8.905e-6, 2.860e+0
0.457, -2.255e-6, -8.950e-6, 2.880e+0
0.456, -2.247e-6, -8.995e-6, 2.900e+0
0.455, -2.238e-6, -9.040e-6, 2.920e+0
0.454, -2.230e-6, -9.084e-6, 2.940e+0
0.453, -2.222e-6, -9.129e-6, 2.960e+0
0.452, -2.214e-6, -9.173e-6, 2.980e+0
0.451, -2.206e-6, -9.217e-6, 3.000e+0
0.450, -2.198e-6, -9.261e-6, 3.020e+0
0.449, -2.190e-6, -9.305e-6, 3.040e+0
0.448, -2.182e-6, -9.349e-6, 3.060e+0
0.447, -2.174e-6, -9.392e-6, 3.080e+0
0.446, -2.166e-6, -9.435e-6, 3.100e+0
0.445, -2.158e-6, -9.479e-6, 3.120e+0
0.444, -2.151e-6, -9.522e-6, 3.140e+0
0.443, -2.143e-6, -9.564e-6, 3.160e+0
0.442, -2.135e-6, -9.607e-6, 3.180e+0
0.441, -2.127e-6, -9.650e-6, 3.200e+0
0.440, -2.119e-6, -9.692e-6, 3.220e+0
0.439, -2.111e-6, -9.734e-6, 3.240e+0
0.438, -2.104e-6, -9.776e-6, 3.260e+0
0.437, -2.097e-6, -9.818e-6, 3.280e+0
0.436, -2.088e-6, -9.860e-6, 3.300e+0
0.435, -2.081e-6, -9.902e-6, 3.320e+0
0.434, -2.073e-6, -9.943e-6, 3.340e+0
0.433, -2.065e-6, -9.984e-6, 3.360e+0
0.432, -2.058e-6, -1.003e-5, 3.380e+0
0.431, -2.048e-6, -1.007e-5, 3.400e+0
0.430, -2.041e-6, -1.011e-5, 3.420e+0
0.429, -2.033e-6, -1.015e-5, 3.440e+0
0.428, -2.025e-6, -1.019e-5, 3.460e+0
0.427, -2.018e-6, -1.023e-5, 3.480e+0
0.426, -2.010e-6, -1.027e-5, 3.500e+0
0.425, -2.001e-6, -1.031e-5, 3.520e+0
0.424, -1.994e-6, -1.035e-5, 3.540e+0
0.423, -1.986e-6, -1.039e-5, 3.560e+0
0.422, -1.978e-6, -1.043e-5, 3.580e+0
0.421, -1.970e-6, -1.047e-5, 3.600e+0
0.420, -1.963e-6, -1.051e-5, 3.620e+0
0.419, -1.954e-6, -1.055e-5, 3.640e+0
0.418, -1.945e-6, -1.058e-5, 3.660e+0
0.417, -1.939e-6, -1.062e-5, 3.680e+0
0.416, -1.929e-6, -1.066e-5, 3.700e+0
0.415, -1.922e-6, -1.070e-5, 3.720e+0
0.414, -1.913e-6, -1.074e-5, 3.740e+0
0.413, -1.905e-6, -1.078e-5, 3.760e+0
0.412, -1.896e-6, -1.081e-5, 3.780e+0
0.411, -1.889e-6, -1.085e-5, 3.800e+0
0.410, -1.885e-6, -1.089e-5, 3.820e+0
0.409, -1.882e-6, -1.093e-5, 3.840e+0
0.408, -1.866e-6, -1.097e-5, 3.860e+0
0.407, -1.856e-6, -1.100e-5, 3.880e+0
0.406, -1.847e-6, -1.104e-5, 3.900e+0
0.405, -1.838e-6, -1.108e-5, 3.920e+0
0.404, -1.829e-6, -1.111e-5, 3.940e+0
0.403, -1.821e-6, -1.115e-5, 3.960e+0
0.402, -1.811e-6, -1.119e-5, 3.980e+0
0.401, -1.802e-6, -1.122e-5, 4.000e+0
0.400, -1.793e-6, -1.126e-5, 4.020e+0
0.399, -1.783e-6, -1.129e-5, 4.040e+0
0.398, -1.774e-6, -1.133e-5, 4.060e+0
0.397, -1.765e-6, -1.136e-5, 4.080e+0
0.396, -1.753e-6, -1.140e-5, 4.100e+0
0.395, -1.745e-6, -1.143e-5, 4.120e+0
0.394, -1.735e-6, -1.147e-5, 4.140e+0
0.393, -1.725e-6, -1.150e-5, 4.160e+0
0.392, -1.715e-6, -1.154e-5, 4.180e+0
0.391, -1.704e-6, -1.157e-5, 4.200e+0
0.390, -1.694e-6, -1.161e-5, 4.220e+0
0.389, -1.683e-6, -1.164e-5, 4.240e+0
0.388, -1.674e-6, -1.167e-5, 4.260e+0
0.387, -1.661e-6, -1.171e-5, 4.280e+0
0.386, -1.649e-6, -1.174e-5, 4.300e+0
0.385, -1.638e-6, -1.177e-5, 4.320e+0
0.384, -1.629e-6, -1.180e-5, 4.340e+0
0.383, -1.615e-6, -1.184e-5, 4.360e+0
0.382, -1.603e-6, -1.187e-5, 4.380e+0
0.381, -1.592e-6, -1.190e-5, 4.400e+0
0.380, -1.579e-6, -1.193e-5, 4.420e+0
0.379, -1.567e-6, -1.196e-5, 4.440e+0
0.378, -1.553e-6, -1.199e-5, 4.460e+0
0.377, -1.539e-6, -1.202e-5, 4.480e+0
0.376, -1.525e-6, -1.206e-5, 4.500e+0
0.375, -1.511e-6, -1.209e-5, 4.520e+0
0.374, -1.498e-6, -1.212e-5, 4.540e+0
0.373, -1.484e-6, -1.215e-5, 4.560e+0
0.372, -1.469e-6, -1.217e-5, 4.580e+0
0.371, -1.454e-6, -1.220e-5, 4.600e+0
0.370, -1.437e-6, -1.223e-5, 4.620e+0
0.369, -1.423e-6, -1.226e-5, 4.640e+0
0.368, -1.407e-6, -1.229e-5, 4.660e+0
0.367, -1.390e-6, -1.232e-5, 4.680e+0
0.366, -1.373e-6, -1.234e-5, 4.700e+0
0.365, -1.356e-6, -1.237e-5, 4.720e+0
0.364, -1.337e-6, -1.240e-5, 4.740e+0
0.363, -1.320e-6, -1.242e-5, 4.760e+0
0.362, -1.299e-6, -1.245e-5, 4.780e+0
0.361, -1.281e-6, -1.248e-5, 4.800e+0
0.360, -1.260e-6, -1.250e-5, 4.820e+0
0.359, -1.240e-6, -1.253e-5, 4.840e+0
0.358, -1.224e-6, -1.255e-5, 4.860e+0
0.357, -1.198e-6, -1.257e-5, 4.880e+0
0.356, -1.176e-6, -1.260e-5, 4.900e+0
0.355, -1.152e-6, -1.262e-5, 4.920e+0
0.354, -1.129e-6, -1.264e-5, 4.940e+0
0.353, -1.104e-6, -1.267e-5, 4.960e+0
0.352, -1.080e-6, -1.269e-5, 4.980e+0
0.351, -1.054e-6, -1.271e-5, 5.000e+0
0.350, -1.029e-6, -1.273e-5, 5.020e+0
0.349, -9.994e-7, -1.275e-5, 5.040e+0
0.348, -9.714e-7, -1.277e-5, 5.060e+0
0.347, -9.442e-7, -1.279e-5, 5.080e+0
0.346, -9.122e-7, -1.281e-5, 5.100e+0
0.345, -8.814e-7, -1.282e-5, 5.120e+0
0.344, -8.516e-7, -1.284e-5, 5.140e+0
0.343, -8.155e-7, -1.286e-5, 5.160e+0
0.342, -7.849e-7, -1.287e-5, 5.180e+0
0.341, -7.490e-7, -1.289e-5, 5.200e+0
0.340, -7.145e-7, -1.290e-5, 5.220e+0
0.339, -6.743e-7, -1.291e-5, 5.240e+0
0.338, -6.369e-7, -1.293e-5, 5.260e+0
0.337, -5.972e-7, -1.294e-5, 5.280e+0
0.336, -5.581e-7, -1.295e-5, 5.300e+0
0.335, -5.138e-7, -1.296e-5, 5.320e+0
0.334, -4.717e-7, -1.297e-5, 5.340e+0
0.333, -4.248e-7, -1.298e-5, 5.360e+0
0.332, -3.786e-7, -1.299e-5, 5.380e+0
0.331, -3.315e-7, -1.299e-5, 5.400e+0
0.330, -2.794e-7, -1.300e-5, 5.420e+0
0.329, -2.296e-7, -1.300e-5, 5.440e+0
0.328, -1.746e-7, -1.301e-5, 5.460e+0
0.327, -1.196e-7, -1.301e-5, 5.480e+0
0.326, -6.369e-8, -1.301e-5, 5.500e+0
0.325, -5.364e-9, -1.301e-5, 5.520e+0
0.324, 5.938e-8, -1.301e-5, 5.540e+0
0.323, 1.199e-7, -1.301e-5, 5.560e+0
0.322, 1.843e-7, -1.300e-5, 5.580e+0
0.321, 2.524e-7, -1.300e-5, 5.600e+0
0.320, 3.250e-7, -1.299e-5, 5.620e+0
0.319, 3.945e-7, -1.298e-5, 5.640e+0
0.318, 4.663e-7, -1.297e-5, 5.660e+0
0.317, 5.476e-7, -1.296e-5, 5.680e+0
0.316, 6.267e-7, -1.295e-5, 5.700e+0
0.315, 7.079e-7, -1.294e-5, 5.720e+0
0.314, 7.954e-7, -1.292e-5, 5.740e+0
0.313, 8.842e-7, -1.290e-5, 5.760e+0
0.312, 9.760e-7, -1.288e-5, 5.780e+0
0.311, 1.071e-6, -1.286e-5, 5.800e+0
0.310, 1.165e-6, -1.284e-5, 5.820e+0
0.309, 1.265e-6, -1.281e-5, 5.840e+0
0.308, 1.369e-6, -1.279e-5, 5.860e+0
0.307, 1.482e-6, -1.276e-5, 5.880e+0
0.306, 1.592e-6, -1.272e-5, 5.900e+0
0.305, 1.707e-6, -1.269e-5, 5.920e+0
0.304, 1.826e-6, -1.265e-5, 5.940e+0
0.303, 1.949e-6, -1.262e-5, 5.960e+0
0.302, 2.076e-6, -1.257e-5, 5.980e+0
0.301, 2.209e-6, -1.253e-5, 6.000e+0
0.300, 2.345e-6, -1.248e-5, 6.020e+0
0.299, 2.484e-6, -1.243e-5, 6.040e+0
0.298, 2.632e-6, -1.238e-5, 6.060e+0
0.297, 2.782e-6, -1.232e-5, 6.080e+0
0.296, 2.935e-6, -1.227e-5, 6.100e+0
0.295, 3.096e-6, -1.220e-5, 6.120e+0
0.294, 3.264e-6, -1.214e-5, 6.140e+0
0.293, 3.431e-6, -1.207e-5, 6.160e+0
0.292, 3.610e-6, -1.200e-5, 6.180e+0
0.291, 3.791e-6, -1.192e-5, 6.200e+0
0.290, 3.979e-6, -1.184e-5, 6.220e+0
0.289, 4.173e-6, -1.176e-5, 6.240e+0
0.288, 4.376e-6, -1.167e-5, 6.260e+0
0.287, 4.583e-6, -1.158e-5, 6.280e+0
0.286, 4.792e-6, -1.148e-5, 6.300e+0
0.285, 5.007e-6, -1.138e-5, 6.320e+0
0.284, 5.228e-6, -1.128e-5, 6.340e+0
0.283, 5.463e-6, -1.117e-5, 6.360e+0
0.282, 5.704e-6, -1.106e-5, 6.380e+0
0.281, 5.946e-6, -1.094e-5, 6.400e+0
0.280, 6.203e-6, -1.081e-5, 6.420e+0
0.279, 6.459e-6, -1.068e-5, 6.440e+0
0.278, 6.726e-6, -1.055e-5, 6.460e+0
0.277, 7.006e-6, -1.041e-5, 6.480e+0
0.276, 7.286e-6, -1.026e-5, 6.500e+0
0.275, 7.588e-6, -1.011e-5, 6.520e+0
0.274, 7.889e-6, -9.954e-6, 6.540e+0
0.273, 8.183e-6, -9.790e-6, 6.560e+0
0.272, 8.505e-6, -9.620e-6, 6.580e+0
0.271, 8.835e-6, -9.444e-6, 6.600e+0
0.270, 9.165e-6, -9.260e-6, 6.620e+0
0.269, 9.511e-6, -9.070e-6, 6.640e+0
0.268, 9.857e-6, -8.873e-6, 6.660e+0
0.267, 1.021e-5, -8.669e-6, 6.680e+0
0.266, 1.058e-5, -8.457e-6, 6.700e+0
0.265, 1.097e-5, -8.238e-6, 6.720e+0
0.264, 1.135e-5, -8.011e-6, 6.740e+0
0.263, 1.174e-5, -7.776e-6, 6.760e+0
0.262, 1.215e-5, -7.533e-6, 6.780e+0
0.261, 1.256e-5, -7.282e-6, 6.800e+0
0.260, 1.297e-5, -7.022e-6, 6.820e+0
0.259, 1.340e-5, -6.754e-6, 6.840e+0
0.258, 1.384e-5, -6.478e-6, 6.860e+0
0.257, 1.428e-5, -6.192e-6, 6.880e+0
0.256, 1.472e-5, -5.898e-6, 6.900e+0
0.255, 1.517e-5, -5.594e-6, 6.920e+0
0.254, 1.565e-5, -5.281e-6, 6.940e+0
0.253, 1.613e-5, -4.958e-6, 6.960e+0
0.252, 1.664e-5, -4.626e-6, 6.980e+0
0.251, 1.713e-5, -4.283e-6, 7.000e+0
0.250, 1.764e-5, -3.930e-6, 7.020e+0
0.249, 1.816e-5, -3.567e-6, 7.040e+0
0.248, 1.867e-5, -3.194e-6, 7.060e+0
0.247, 1.920e-5, -2.810e-6, 7.080e+0
0.246, 1.973e-5, -2.415e-6, 7.100e+0
0.245, 2.027e-5, -2.010e-6, 7.120e+0
0.244, 2.082e-5, -1.594e-6, 7.140e+0
0.243, 2.137e-5, -1.166e-6, 7.160e+0
0.242, 2.193e-5, -7.275e-7, 7.180e+0
0.241, 2.248e-5, -2.780e-7, 7.200e+0
0.240, 2.303e-5, 1.827e-7, 7.220e+0
0.239, 2.363e-5, 6.553e-7, 7.240e+0
0.238, 2.420e-5, 1.139e-6, 7.260e+0
0.237, 2.478e-5, 1.635e-6, 7.280e+0
0.236, 2.536e-5, 2.142e-6, 7.300e+0
0.235, 2.594e-5, 2.661e-6, 7.320e+0
0.234, 2.652e-5, 3.191e-6, 7.340e+0
0.233, 2.710e-5, 3.733e-6, 7.360e+0
0.232, 2.768e-5, 4.287e-6, 7.380e+0
0.231, 2.826e-5, 4.852e-6, 7.400e+0
0.230, 2.884e-5, 5.429e-6, 7.420e+0
0.229, 2.943e-5, 6.017e-6, 7.440e+0
0.228, 3.001e-5, 6.617e-6, 7.460e+0
0.227, 3.059e-5, 7.229e-6, 7.480e+0
0.226, 3.118e-5, 7.853e-6, 7.500e+0
0.225, 3.175e-5, 8.488e-6, 7.520e+0
0.224, 3.230e-5, 9.134e-6, 7.540e+0
0.223, 3.289e-5, 9.792e-6, 7.560e+0
0.222, 3.345e-5, 1.046e-5, 7.580e+0
0.221, 3.400e-5, 1.114e-5, 7.600e+0
0.220, 3.454e-5, 1.183e-5, 7.620e+0
0.219, 3.507e-5, 1.253e-5, 7.640e+0
0.218, 3.560e-5, 1.324e-5, 7.660e+0
0.217, 3.616e-5, 1.397e-5, 7.680e+0
0.216, 3.665e-5, 1.470e-5, 7.700e+0
0.215, 3.713e-5, 1.544e-5, 7.720e+0
0.214, 3.761e-5, 1.620e-5, 7.740e+0
0.213, 3.809e-5, 1.696e-5, 7.760e+0
0.212, 3.856e-5, 1.773e-5, 7.780e+0
0.211, 3.903e-5, 1.851e-5, 7.800e+0
0.210, 3.949e-5, 1.930e-5, 7.820e+0
0.209, 3.991e-5, 2.010e-5, 7.840e+0
0.208, 4.033e-5, 2.090e-5, 7.860e+0
0.207, 4.074e-5, 2.172e-5, 7.880e+0
0.206, 4.113e-5, 2.254e-5, 7.900e+0
0.205, 4.152e-5, 2.337e-5, 7.920e+0
0.204, 4.195e-5, 2.421e-5, 7.940e+0
0.203, 4.227e-5, 2.506e-5, 7.960e+0
0.202, 4.259e-5, 2.591e-5, 7.980e+0
0.201, 4.290e-5, 2.677e-5, 8.000e+0
0.200, 4.320e-5, 2.763e-5, 8.020e+0
0.199, 4.348e-5, 2.850e-5, 8.040e+0
0.198, 4.374e-5, 2.937e-5, 8.060e+0
0.197, 4.400e-5, 3.025e-5, 8.080e+0
0.196, 4.423e-5, 3.114e-5, 8.100e+0
0.195, 4.446e-5, 3.203e-5, 8.120e+0
0.194, 4.467e-5, 3.292e-5, 8.140e+0
0.193, 4.483e-5, 3.382e-5, 8.160e+0
0.192, 4.502e-5, 3.472e-5, 8.180e+0
0.191, 4.518e-5, 3.562e-5, 8.200e+0
0.190, 4.530e-5, 3.653e-5, 8.220e+0
0.189, 4.542e-5, 3.744e-5, 8.240e+0
0.188, 4.553e-5, 3.835e-5, 8.260e+0
0.187, 4.564e-5, 3.926e-5, 8.280e+0
0.186, 4.572e-5, 4.017e-5, 8.300e+0
0.185, 4.578e-5, 4.109e-5, 8.320e+0
0.184, 4.583e-5, 4.201e-5, 8.340e+0
0.183, 4.586e-5, 4.292e-5, 8.360e+0
0.182, 4.588e-5, 4.384e-5, 8.380e+0
0.181, 4.589e-5, 4.476e-5, 8.400e+0
0.180, 4.589e-5, 4.568e-5, 8.420e+0
0.179, 4.586e-5, 4.659e-5, 8.440e+0
0.178, 4.582e-5, 4.751e-5, 8.460e+0
0.177, 4.579e-5, 4.843e-5, 8.480e+0
0.176, 4.574e-5, 4.934e-5, 8.500e+0
0.175, 4.569e-5, 5.026e-5, 8.520e+0
0.174, 4.561e-5, 5.117e-5, 8.540e+0
0.173, 4.553e-5, 5.208e-5, 8.560e+0
0.172, 4.544e-5, 5.299e-5, 8.580e+0
0.171, 4.533e-5, 5.389e-5, 8.600e+0
0.170, 4.523e-5, 5.480e-5, 8.620e+0
0.169, 4.511e-5, 5.570e-5, 8.640e+0
0.168, 4.499e-5, 5.660e-5, 8.660e+0
0.167, 4.485e-5, 5.750e-5, 8.680e+0
0.166, 4.471e-5, 5.839e-5, 8.700e+0
0.165, 4.456e-5, 5.928e-5, 8.720e+0
0.164, 4.441e-5, 6.017e-5, 8.740e+0
0.163, 4.425e-5, 6.106e-5, 8.760e+0
0.162, 4.409e-5, 6.194e-5, 8.780e+0
0.161, 4.391e-5, 6.282e-5, 8.800e+0
0.160, 4.374e-5, 6.369e-5, 8.820e+0
0.159, 4.356e-5, 6.456e-5, 8.840e+0
0.158, 4.337e-5, 6.543e-5, 8.860e+0
0.157, 4.318e-5, 6.629e-5, 8.880e+0
0.156, 4.299e-5, 6.715e-5, 8.900e+0
0.155, 4.279e-5, 6.801e-5, 8.920e+0
0.154, 4.259e-5, 6.886e-5, 8.940e+0
0.153, 4.238e-5, 6.971e-5, 8.960e+0
0.152, 4.218e-5, 7.055e-5, 8.980e+0
0.151, 4.198e-5, 7.139e-5, 9.000e+0
0.150, 4.177e-5, 7.223e-5, 9.020e+0
0.149, 4.156e-5, 7.306e-5, 9.040e+0
0.148, 4.135e-5, 7.388e-5, 9.060e+0
0.147, 4.115e-5, 7.471e-5, 9.080e+0
0.146, 4.094e-5, 7.553e-5, 9.100e+0
0.145, 4.073e-5, 7.634e-5, 9.120e+0
0.144, 4.051e-5, 7.715e-5, 9.140e+0
0.143, 4.030e-5, 7.796e-5, 9.160e+0
0.142, 4.009e-5, 7.876e-5, 9.180e+0
0.141, 3.988e-5, 7.956e-5, 9.200e+0
0.140, 3.967e-5, 8.035e-5, 9.220e+0
0.139, 3.946e-5, 8.114e-5, 9.240e+0
0.138, 3.924e-5, 8.192e-5, 9.260e+0
0.137, 3.903e-5, 8.270e-5, 9.280e+0
0.136, 3.882e-5, 8.348e-5, 9.300e+0
0.135, 3.862e-5, 8.425e-5, 9.320e+0
0.134, 3.841e-5, 8.502e-5, 9.340e+0
0.133, 3.820e-5, 8.579e-5, 9.360e+0
0.132, 3.799e-5, 8.655e-5, 9.380e+0
0.131, 3.779e-5, 8.730e-5, 9.400e+0
0.130, 3.759e-5, 8.805e-5, 9.420e+0
0.129, 3.738e-5, 8.880e-5, 9.440e+0
0.128, 3.718e-5, 8.954e-5, 9.460e+0
0.127, 3.698e-5, 9.028e-5, 9.480e+0
0.126, 3.679e-5, 9.102e-5, 9.500e+0
0.125, 3.659e-5, 9.175e-5, 9.520e+0
0.124, 3.640e-5, 9.248e-5, 9.540e+0
0.123, 3.621e-5, 9.320e-5, 9.560e+0
0.122, 3.602e-5, 9.392e-5, 9.580e+0
0.121, 3.583e-5, 9.464e-5, 9.600e+0
0.120, 3.564e-5, 9.535e-5, 9.620e+0
0.119, 3.546e-5, 9.606e-5, 9.640e+0
0.118, 3.528e-5, 9.677e-5, 9.660e+0
0.117, 3.509e-5, 9.747e-5, 9.680e+0
0.116, 3.492e-5, 9.817e-5, 9.700e+0
0.115, 3.474e-5, 9.886e-5, 9.720e+0
0.114, 3.457e-5, 9.955e-5, 9.740e+0
0.113, 3.440e-5, 1.002e-4, 9.760e+0
0.112, 3.423e-5, 1.009e-4, 9.780e+0
0.111, 3.406e-5, 1.016e-4, 9.800e+0
0.110, 3.389e-5, 1.023e-4, 9.820e+0
0.109, 3.373e-5, 1.030e-4, 9.840e+0
0.108, 3.356e-5, 1.036e-4, 9.860e+0
0.107, 3.340e-5, 1.043e-4, 9.880e+0
0.106, 3.324e-5, 1.050e-4, 9.900e+0
0.105, 3.309e-5, 1.056e-4, 9.920e+0
0.104, 3.293e-5, 1.063e-4, 9.940e+0
0.103, 3.278e-5, 1.069e-4, 9.960e+0
0.102, 3.263e-5, 1.076e-4, 9.980e+0
0.101, 3.248e-5, 1.082e-4, 1.000e+1
0.100, 3.234e-5, 1.089e-4, 1.002e+1
0.099, 3.219e-5, 1.095e-4, 1.004e+1
0.098, 3.205e-5, 1.102e-4, 1.006e+1
0.097, 3.191e-5, 1.108e-4, 1.008e+1
0.096, 3.177e-5, 1.114e-4, 1.010e+1
0.095, 3.163e-5, 1.121e-4, 1.012e+1
0.094, 3.150e-5, 1.127e-4, 1.014e+1
0.093, 3.136e-5, 1.133e-4, 1.016e+1
0.092, 3.123e-5, 1.140e-4, 1.018e+1
0.091, 3.110e-5, 1.146e-4, 1.020e+1
0.090, 3.098e-5, 1.152e-4, 1.022e+1
0.089, 3.085e-5, 1.158e-4, 1.024e+1
0.088, 3.072e-5, 1.164e-4, 1.026e+1
0.087, 3.060e-5, 1.170e-4, 1.028e+1
0.086, 3.048e-5, 1.177e-4, 1.030e+1
0.085, 3.036e-5, 1.183e-4, 1.032e+1
0.084, 3.024e-5, 1.189e-4, 1.034e+1
0.083, 3.013e-5, 1.195e-4, 1.036e+1
0.082, 3.001e-5, 1.201e-4, 1.038e+1
0.081, 2.990e-5, 1.207e-4, 1.040e+1
0.080, 2.979e-5, 1.213e-4, 1.042e+1
0.079, 2.968e-5, 1.219e-4, 1.044e+1
0.078, 2.957e-5, 1.224e-4, 1.046e+1
0.077, 2.946e-5, 1.230e-4, 1.048e+1
0.076, 2.936e-5, 1.236e-4, 1.050e+1
0.075, 2.925e-5, 1.242e-4, 1.052e+1
0.074, 2.915e-5, 1.248e-4, 1.054e+1
0.073, 2.905e-5, 1.254e-4, 1.056e+1
0.072, 2.895e-5, 1.260e-4, 1.058e+1
0.071, 2.885e-5, 1.265e-4, 1.060e+1
0.070, 2.876e-5, 1.271e-4, 1.062e+1
0.069, 2.867e-5, 1.277e-4, 1.064e+1
0.068, 2.857e-5, 1.283e-4, 1.066e+1
0.067, 2.848e-5, 1.288e-4, 1.068e+1
0.066, 2.839e-5, 1.294e-4, 1.070e+1
0.065, 2.830e-5, 1.300e-4, 1.072e+1
0.064, 2.821e-5, 1.305e-4, 1.074e+1
0.063, 2.813e-5, 1.311e-4, 1.076e+1
0.062, 2.804e-5, 1.316e-4, 1.078e+1
0.061, 2.796e-5, 1.322e-4, 1.080e+1
0.060, 2.787e-5, 1.328e-4, 1.082e+1
0.059, 2.779e-5, 1.333e-4, 1.084e+1
0.058, 2.771e-5, 1.339e-4, 1.086e+1
0.057, 2.763e-5, 1.344e-4, 1.088e+1
0.056, 2.755e-5, 1.350e-4, 1.090e+1
0.055, 2.748e-5, 1.355e-4, 1.092e+1
0.054, 2.740e-5, 1.361e-4, 1.094e+1
0.053, 2.733e-5, 1.366e-4, 1.096e+1
0.052, 2.725e-5, 1.372e-4, 1.098e+1
0.051, 2.718e-5, 1.377e-4, 1.100e+1
0.050, 2.711e-5, 1.382e-4, 1.102e+1
0.049, 2.704e-5, 1.388e-4, 1.104e+1
0.048, 2.697e-5, 1.393e-4, 1.106e+1
0.047, 2.690e-5, 1.399e-4, 1.108e+1
0.046, 2.683e-5, 1.404e-4, 1.110e+1
0.045, 2.677e-5, 1.409e-4, 1.112e+1
0.044, 2.670e-5, 1.415e-4, 1.114e+1
0.043, 2.664e-5, 1.420e-4, 1.116e+1
0.042, 2.658e-5, 1.425e-4, 1.118e+1
0.041, 2.652e-5, 1.431e-4, 1.120e+1
0.040, 2.645e-5, 1.436e-4, 1.122e+1
0.039, 2.640e-5, 1.441e-4, 1.124e+1
0.038, 2.634e-5, 1.447e-4, 1.126e+1
0.037, 2.628e-5, 1.452e-4, 1.128e+1
0.036, 2.622e-5, 1.457e-4, 1.130e+1
0.035, 2.616e-5, 1.462e-4, 1.132e+1
0.034, 2.611e-5, 1.467e-4, 1.134e+1
0.033, 2.605e-5, 1.473e-4, 1.136e+1
0.032, 2.600e-5, 1.478e-4, 1.138e+1
0.031, 2.595e-5, 1.483e-4, 1.140e+1
0.030, 2.590e-5, 1.488e-4, 1.142e+1
0.029, 2.585e-5, 1.493e-4, 1.144e+1
0.028, 2.580e-5, 1.499e-4, 1.146e+1
0.027, 2.575e-5, 1.504e-4, 1.148e+1
0.026, 2.570e-5, 1.509e-4, 1.150e+1
0.025, 2.565e-5, 1.514e-4, 1.152e+1
0.024, 2.561e-5, 1.519e-4, 1.154e+1
0.023, 2.556e-5, 1.524e-4, 1.156e+1
0.022, 2.552e-5, 1.529e-4, 1.158e+1
0.021, 2.547e-5, 1.534e-4, 1.160e+1
0.020, 2.543e-5, 1.540e-4, 1.162e+1
0.019, 2.539e-5, 1.545e-4, 1.164e+1
0.018, 2.535e-5, 1.550e-4, 1.166e+1
0.017, 2.531e-5, 1.555e-4, 1.168e+1
0.016, 2.527e-5, 1.560e-4, 1.170e+1
0.015, 2.523e-5, 1.565e-4, 1.172e+1
0.014, 2.519e-5, 1.570e-4, 1.174e+1
0.013, 2.515e-5, 1.575e-4, 1.176e+1
0.012, 2.512e-5, 1.580e-4, 1.178e+1
0.011, 2.508e-5, 1.585e-4, 1.180e+1
0.010, 2.505e-5, 1.590e-4, 1.182e+1
0.009, 2.501e-5, 1.595e-4, 1.184e+1
0.008, 2.498e-5, 1.600e-4, 1.186e+1
0.007, 2.494e-5, 1.605e-4, 1.188e+1
0.006, 2.491e-5, 1.610e-4, 1.190e+1
0.005, 2.488e-5, 1.615e-4, 1.192e+1
0.004, 2.485e-5, 1.620e-4, 1.194e+1
0.003, 2.482e-5, 1.625e-4, 1.196e+1
0.002, 2.479e-5, 1.630e-4, 1.198e+1
0.001, 2.476e-5, 1.635e-4, 1.200e+1

Segment 2:
0.000, 2.464e-5, 1.640e-4, 1.202e+1
0.001, 2.430e-5, 1.645e-4, 1.204e+1
0.002, 2.410e-5, 1.649e-4, 1.206e+1
0.003, 2.394e-5, 1.654e-4, 1.208e+1
0.004, 2.381e-5, 1.659e-4, 1.210e+1
0.005, 2.368e-5, 1.664e-4, 1.212e+1
0.006, 2.356e-5, 1.668e-4, 1.214e+1
0.007, 2.344e-5, 1.673e-4, 1.216e+1
0.008, 2.332e-5, 1.678e-4, 1.218e+1
0.009, 2.321e-5, 1.682e-4, 1.220e+1
0.010, 2.311e-5, 1.687e-4, 1.222e+1
0.011, 2.300e-5, 1.692e-4, 1.224e+1
0.012, 2.290e-5, 1.696e-4, 1.226e+1
0.013, 2.280e-5, 1.701e-4, 1.228e+1
0.014, 2.270e-5, 1.705e-4, 1.230e+1
0.015, 2.260e-5, 1.710e-4, 1.232e+1
0.016, 2.251e-5, 1.714e-4, 1.234e+1
0.017, 2.241e-5, 1.719e-4, 1.236e+1
0.018, 2.232e-5, 1.723e-4, 1.238e+1
0.019, 2.223e-5, 1.728e-4, 1.240e+1
0.020, 2.214e-5, 1.732e-4, 1.242e+1
0.021, 2.206e-5, 1.736e-4, 1.244e+1
0.022, 2.197e-5, 1.741e-4, 1.246e+1
0.023, 2.188e-5, 1.745e-4, 1.248e+1
0.024, 2.180e-5, 1.750e-4, 1.250e+1
0.025, 2.171e-5, 1.754e-4, 1.252e+1
0.026, 2.163e-5, 1.758e-4, 1.254e+1
0.027, 2.155e-5, 1.763e-4, 1.256e+1
0.028, 2.147e-5, 1.767e-4, 1.258e+1
0.029, 2.139e-5, 1.771e-4, 1.260e+1
0.030, 2.131e-5, 1.775e-4, 1.262e+1
0.031, 2.123e-5, 1.780e-4, 1.264e+1
0.032, 2.116e-5, 1.784e-4, 1.266e+1
0.033, 2.109e-5, 1.788e-4, 1.268e+1
0.034, 2.101e-5, 1.792e-4, 1.270e+1
0.035, 2.093e-5, 1.797e-4, 1.272e+1
0.036, 2.086e-5, 1.801e-4, 1.274e+1
0.037, 2.078e-5, 1.805e-4, 1.276e+1
0.038, 2.071e-5, 1.809e-4, 1.278e+1
0.039, 2.064e-5, 1.813e-4, 1.280e+1
0.040, 2.057e-5, 1.817e-4, 1.282e+1
0.041, 2.050e-5, 1.821e-4, 1.284e+1
0.042, 2.043e-5, 1.825e-4, 1.286e+1
0.043, 2.036e-5, 1.829e-4, 1.288e+1
0.044, 2.029e-5, 1.834e-4, 1.290e+1
0.045, 2.022e-5, 1.838e-4, 1.292e+1
0.046, 2.015e-5, 1.842e-4, 1.294e+1
0.047, 2.008e-5, 1.846e-4, 1.296e+1
0.048, 2.002e-5, 1.850e-4, 1.298e+1
0.049, 1.995e-5, 1.854e-4, 1.300e+1
0.050, 1.988e-5, 1.858e-4, 1.302e+1
0.051, 1.982e-5, 1.862e-4, 1.304e+1
0.052, 1.975e-5, 1.866e-4, 1.306e+1
0.053, 1.969e-5, 1.869e-4, 1.308e+1
0.054, 1.962e-5, 1.873e-4, 1.310e+1
0.055, 1.956e-5, 1.877e-4, 1.312e+1
0.056, 1.949e-5, 1.881e-4, 1.314e+1
0.057, 1.942e-5, 1.885e-4, 1.316e+1
0.058, 1.936e-5, 1.889e-4, 1.318e+1
0.059, 1.929e-5, 1.893e-4, 1.320e+1
0.060, 1.923e-5, 1.897e-4, 1.322e+1
0.061, 1.917e-5, 1.900e-4, 1.324e+1
0.062, 1.910e-5, 1.904e-4, 1.326e+1
0.063, 1.904e-5, 1.908e-4, 1.328e+1
0.064, 1.897e-5, 1.912e-4, 1.330e+1
0.065, 1.891e-5, 1.916e-4, 1.332e+1
0.066, 1.885e-5, 1.919e-4, 1.334e+1
0.067, 1.878e-5, 1.923e-4, 1.336e+1
0.068, 1.872e-5, 1.927e-4, 1.338e+1
0.069, 1.866e-5, 1.931e-4, 1.340e+1
0.070, 1.859e-5, 1.934e-4, 1.342e+1
0.071, 1.853e-5, 1.938e-4, 1.344e+1
0.072, 1.846e-5, 1.942e-4, 1.346e+1
0.073, 1.840e-5, 1.945e-4, 1.348e+1
0.074, 1.833e-5, 1.949e-4, 1.350e+1
0.075, 1.827e-5, 1.953e-4, 1.352e+1
0.076, 1.820e-5, 1.956e-4, 1.354e+1
0.077, 1.814e-5, 1.960e-4, 1.356e+1
0.078, 1.807e-5, 1.964e-4, 1.358e+1
0.079, 1.800e-5, 1.967e-4, 1.360e+1
0.080, 1.794e-5, 1.971e-4, 1.362e+1
0.081, 1.787e-5, 1.974e-4, 1.364e+1
0.082, 1.781e-5, 1.978e-4, 1.366e+1
0.083, 1.774e-5, 1.982e-4, 1.368e+1
0.084, 1.767e-5, 1.985e-4, 1.370e+1
0.085, 1.760e-5, 1.989e-4, 1.372e+1
0.086, 1.753e-5, 1.992e-4, 1.374e+1
0.087, 1.746e-5, 1.996e-4, 1.376e+1
0.088, 1.739e-5, 1.999e-4, 1.378e+1
0.089, 1.732e-5, 2.003e-4, 1.380e+1
0.090, 1.725e-5, 2.006e-4, 1.382e+1
0.091, 1.717e-5, 2.009e-4, 1.384e+1
0.092, 1.710e-5, 2.013e-4, 1.386e+1
0.093, 1.703e-5, 2.016e-4, 1.388e+1
0.094, 1.695e-5, 2.020e-4, 1.390e+1
0.095, 1.688e-5, 2.023e-4, 1.392e+1
0.096, 1.680e-5, 2.026e-4, 1.394e+1
0.097, 1.672e-5, 2.030e-4, 1.396e+1
0.098, 1.664e-5, 2.033e-4, 1.398e+1
0.099, 1.656e-5, 2.036e-4, 1.400e+1
0.100, 1.648e-5, 2.040e-4, 1.402e+1
0.101, 1.639e-5, 2.043e-4, 1.404e+1
0.102, 1.631e-5, 2.046e-4, 1.406e+1
0.103, 1.622e-5, 2.049e-4, 1.408e+1
0.104, 1.614e-5, 2.053e-4, 1.410e+1
0.105, 1.605e-5, 2.056e-4, 1.412e+1
0.106, 1.596e-5, 2.059e-4, 1.414e+1
0.107, 1.587e-5, 2.062e-4, 1.416e+1
0.108, 1.577e-5, 2.065e-4, 1.418e+1
0.109, 1.568e-5, 2.069e-4, 1.420e+1
0.110, 1.558e-5, 2.072e-4, 1.422e+1
0.111, 1.548e-5, 2.075e-4, 1.424e+1
0.112, 1.538e-5, 2.078e-4, 1.426e+1
0.113, 1.528e-5, 2.081e-4, 1.428e+1
0.114, 1.517e-5, 2.084e-4, 1.430e+1
0.115, 1.506e-5, 2.087e-4, 1.432e+1
0.116, 1.495e-5, 2.090e-4, 1.434e+1
0.117, 1.484e-5, 2.093e-4, 1.436e+1
0.118, 1.473e-5, 2.096e-4, 1.438e+1
0.119, 1.461e-5, 2.099e-4, 1.440e+1
0.120, 1.448e-5, 2.102e-4, 1.442e+1
0.121, 1.436e-5, 2.105e-4, 1.444e+1
0.122, 1.424e-5, 2.107e-4, 1.446e+1
0.123, 1.411e-5, 2.110e-4, 1.448e+1
0.124, 1.398e-5, 2.113e-4, 1.450e+1
0.125, 1.384e-5, 2.116e-4, 1.452e+1
0.126, 1.370e-5, 2.118e-4, 1.454e+1
0.127, 1.356e-5, 2.121e-4, 1.456e+1
0.128, 1.341e-5, 2.124e-4, 1.458e+1
0.129, 1.326e-5, 2.127e-4, 1.460e+1
0.130, 1.311e-5, 2.129e-4, 1.462e+1
0.131, 1.295e-5, 2.132e-4, 1.464e+1
0.132, 1.280e-5, 2.134e-4, 1.466e+1
0.133, 1.263e-5, 2.137e-4, 1.468e+1
0.134, 1.245e-5, 2.139e-4, 1.470e+1
0.135, 1.228e-5, 2.142e-4, 1.472e+1
0.136, 1.210e-5, 2.144e-4, 1.474e+1
0.137, 1.191e-5, 2.147e-4, 1.476e+1
0.138, 1.173e-5, 2.149e-4, 1.478e+1
0.139, 1.153e-5, 2.151e-4, 1.480e+1
0.140, 1.134e-5, 2.154e-4, 1.482e+1
0.141, 1.113e-5, 2.156e-4, 1.484e+1
0.142, 1.092e-5, 2.158e-4, 1.486e+1
0.143, 1.071e-5, 2.160e-4, 1.488e+1
0.144, 1.049e-5, 2.162e-4, 1.490e+1
0.145, 1.026e-5, 2.164e-4, 1.492e+1
0.146, 1.003e-5, 2.166e-4, 1.494e+1
0.147, 9.788e-6, 2.168e-4, 1.496e+1
0.148, 9.537e-6, 2.170e-4, 1.498e+1
0.149, 9.291e-6, 2.172e-4, 1.500e+1
0.150, 9.029e-6, 2.174e-4, 1.502e+1
0.151, 8.762e-6, 2.175e-4, 1.504e+1
0.152, 8.491e-6, 2.177e-4, 1.506e+1
0.153, 8.217e-6, 2.179e-4, 1.508e+1
0.154, 7.946e-6, 2.180e-4, 1.510e+1
0.155, 7.646e-6, 2.182e-4, 1.512e+1
0.156, 7.342e-6, 2.183e-4, 1.514e+1
0.157, 7.027e-6, 2.185e-4, 1.516e+1
0.158, 6.702e-6, 2.186e-4, 1.518e+1
0.159, 6.383e-6, 2.187e-4, 1.520e+1
0.160, 6.050e-6, 2.189e-4, 1.522e+1
0.161, 5.705e-6, 2.190e-4, 1.524e+1
0.162, 5.354e-6, 2.191e-4, 1.526e+1
0.163, 5.004e-6, 2.192e-4, 1.528e+1
0.164, 4.638e-6, 2.193e-4, 1.530e+1
0.165, 4.266e-6, 2.194e-4, 1.532e+1
0.166, 3.872e-6, 2.194e-4, 1.534e+1
0.167, 3.484e-6, 2.195e-4, 1.536e+1
0.168, 3.086e-6, 2.196e-4, 1.538e+1
0.169, 2.668e-6, 2.196e-4, 1.540e+1
0.170, 2.255e-6, 2.197e-4, 1.542e+1
0.171, 1.834e-6, 2.197e-4, 1.544e+1
0.172, 1.407e-6, 2.197e-4, 1.546e+1
0.173, 9.490e-7, 2.198e-4, 1.548e+1
0.174, 4.861e-7, 2.198e-4, 1.550e+1
0.175, 2.818e-8, 2.198e-4, 1.552e+1
0.176, -4.395e-7, 2.198e-4, 1.554e+1
0.177, -9.135e-7, 2.197e-4, 1.556e+1
0.178, -1.402e-6, 2.197e-4, 1.558e+1
0.179, -1.904e-6, 2.197e-4, 1.560e+1
0.180, -2.389e-6, 2.196e-4, 1.562e+1
0.181, -2.907e-6, 2.196e-4, 1.564e+1
0.182, -3.427e-6, 2.195e-4, 1.566e+1
0.183, -3.952e-6, 2.194e-4, 1.568e+1
0.184, -4.493e-6, 2.193e-4, 1.570e+1
0.185, -5.036e-6, 2.192e-4, 1.572e+1
0.186, -5.596e-6, 2.191e-4, 1.574e+1
0.187, -6.149e-6, 2.190e-4, 1.576e+1
0.188, -6.710e-6, 2.189e-4, 1.578e+1
0.189, -7.279e-6, 2.187e-4, 1.580e+1
0.190, -7.858e-6, 2.186e-4, 1.582e+1
0.191, -8.425e-6, 2.184e-4, 1.584e+1
0.192, -9.011e-6, 2.182e-4, 1.586e+1
0.193, -9.600e-6, 2.180e-4, 1.588e+1
0.194, -1.020e-5, 2.178e-4, 1.590e+1
0.195, -1.079e-5, 2.176e-4, 1.592e+1
0.196, -1.139e-5, 2.174e-4, 1.594e+1
0.197, -1.200e-5, 2.171e-4, 1.596e+1
0.198, -1.260e-5, 2.169e-4, 1.598e+1
0.199, -1.321e-5, 2.166e-4, 1.600e+1
0.200, -1.381e-5, 2.163e-4, 1.602e+1
0.201, -1.441e-5, 2.160e-4, 1.604e+1
0.202, -1.502e-5, 2.157e-4, 1.606e+1
0.203, -1.565e-5, 2.154e-4, 1.608e+1
0.204, -1.625e-5, 2.151e-4, 1.610e+1
0.205, -1.691e-5, 2.148e-4, 1.612e+1
0.206, -1.754e-5, 2.144e-4, 1.614e+1
0.207, -1.814e-5, 2.141e-4, 1.616e+1
0.208, -1.873e-5, 2.137e-4, 1.618e+1
0.209, -1.932e-5, 2.133e-4, 1.620e+1
0.210, -1.989e-5, 2.129e-4, 1.622e+1
0.211, -2.046e-5, 2.125e-4, 1.624e+1
0.212, -2.104e-5, 2.121e-4, 1.626e+1
0.213, -2.162e-5, 2.116e-4, 1.628e+1
0.214, -2.218e-5, 2.112e-4, 1.630e+1
0.215, -2.272e-5, 2.107e-4, 1.632e+1
0.216, -2.325e-5, 2.103e-4, 1.634e+1
0.217, -2.379e-5, 2.098e-4, 1.636e+1
0.218, -2.433e-5, 2.093e-4, 1.638e+1
0.219, -2.483e-5, 2.088e-4, 1.640e+1
0.220, -2.534e-5, 2.083e-4, 1.642e+1
0.221, -2.583e-5, 2.078e-4, 1.644e+1
0.222, -2.631e-5, 2.073e-4, 1.646e+1
0.223, -2.676e-5, 2.067e-4, 1.648e+1
0.224, -2.721e-5, 2.062e-4, 1.650e+1
0.225, -2.765e-5, 2.056e-4, 1.652e+1
0.226, -2.807e-5, 2.051e-4, 1.654e+1
0.227, -2.847e-5, 2.045e-4, 1.656e+1
0.228, -2.887e-5, 2.039e-4, 1.658e+1
0.229, -2.925e-5, 2.033e-4, 1.660e+1
0.230, -2.961e-5, 2.027e-4, 1.662e+1
0.231, -2.994e-5, 2.021e-4, 1.664e+1
0.232, -3.027e-5, 2.015e-4, 1.666e+1
0.233, -3.060e-5, 2.009e-4, 1.668e+1
0.234, -3.090e-5, 2.003e-4, 1.670e+1
0.235, -3.118e-5, 1.997e-4, 1.672e+1
0.236, -3.145e-5, 1.991e-4, 1.674e+1
0.237, -3.169e-5, 1.984e-4, 1.676e+1
0.238, -3.191e-5, 1.978e-4, 1.678e+1
0.239, -3.213e-5, 1.971e-4, 1.680e+1
0.240, -3.234e-5, 1.965e-4, 1.682e+1
0.241, -3.252e-5, 1.958e-4, 1.684e+1
0.242, -3.268e-5, 1.952e-4, 1.686e+1
0.243, -3.284e-5, 1.945e-4, 1.688e+1
0.244, -3.296e-5, 1.939e-4, 1.690e+1
0.245, -3.307e-5, 1.932e-4, 1.692e+1
0.246, -3.316e-5, 1.926e-4, 1.694e+1
0.247, -3.326e-5, 1.919e-4, 1.696e+1
0.248, -3.333e-5, 1.912e-4, 1.698e+1
0.249, -3.339e-5, 1.906e-4, 1.700e+1
0.250, -3.344e-5, 1.899e-4, 1.702e+1
0.251, -3.346e-5, 1.892e-4, 1.704e+1
0.252, -3.348e-5, 1.885e-4, 1.706e+1
0.253, -3.347e-5, 1.879e-4, 1.708e+1
0.254, -3.347e-5, 1.872e-4, 1.710e+1
0.255, -3.344e-5, 1.865e-4, 1.712e+1
0.256, -3.339e-5, 1.859e-4, 1.714e+1
0.257, -3.332e-5, 1.852e-4, 1.716e+1
0.258, -3.326e-5, 1.845e-4, 1.718e+1
0.259, -3.322e-5, 1.839e-4, 1.720e+1
0.260, -3.315e-5, 1.832e-4, 1.722e+1
0.261, -3.304e-5, 1.826e-4, 1.724e+1
0.262, -3.294e-5, 1.819e-4, 1.726e+1
0.263, -3.283e-5, 1.812e-4, 1.728e+1
0.264, -3.271e-5, 1.806e-4, 1.730e+1
0.265, -3.259e-5, 1.799e-4, 1.732e+1
0.266, -3.245e-5, 1.793e-4, 1.734e+1
0.267, -3.231e-5, 1.786e-4, 1.736e+1
0.268, -3.216e-5, 1.780e-4, 1.738e+1
0.269, -3.201e-5, 1.774e-4, 1.740e+1
0.270, -3.185e-5, 1.767e-4, 1.742e+1
0.271, -3.168e-5, 1.761e-4, 1.744e+1
0.272, -3.151e-5, 1.755e-4, 1.746e+1
0.273, -3.132e-5, 1.748e-4, 1.748e+1
0.274, -3.114e-5, 1.742e-4, 1.750e+1
0.275, -3.095e-5, 1.736e-4, 1.752e+1
0.276, -3.077e-5, 1.730e-4, 1.754e+1
0.277, -3.058e-5, 1.724e-4, 1.756e+1
0.278, -3.037e-5, 1.717e-4, 1.758e+1
0.279, -3.017e-5, 1.711e-4, 1.760e+1
0.280, -2.997e-5, 1.705e-4, 1.762e+1
0.281, -2.977e-5, 1.700e-4, 1.764e+1
0.282, -2.956e-5, 1.694e-4, 1.766e+1
0.283, -2.935e-5, 1.688e-4, 1.768e+1
0.284, -2.914e-5, 1.682e-4, 1.770e+1
0.285, -2.893e-5, 1.676e-4, 1.772e+1
0.286, -2.872e-5, 1.670e-4, 1.774e+1
0.287, -2.850e-5, 1.665e-4, 1.776e+1
0.288, -2.830e-5, 1.659e-4, 1.778e+1
0.289, -2.809e-5, 1.653e-4, 1.780e+1
0.290, -2.787e-5, 1.648e-4, 1.782e+1
0.291, -2.766e-5, 1.642e-4, 1.784e+1
0.292, -2.744e-5, 1.637e-4, 1.786e+1
0.293, -2.723e-5, 1.631e-4, 1.788e+1
0.294, -2.702e-5, 1.626e-4, 1.790e+1
0.295, -2.681e-5, 1.621e-4, 1.792e+1
0.296, -2.659e-5, 1.615e-4, 1.794e+1
0.297, -2.638e-5, 1.610e-4, 1.796e+1
0.298, -2.617e-5, 1.605e-4, 1.798e+1
0.299, -2.597e-5, 1.600e-4, 1.800e+1
0.300, -2.576e-5, 1.594e-4, 1.802e+1
0.301, -2.555e-5, 1.589e-4, 1.804e+1
0.302, -2.535e-5, 1.584e-4, 1.806e+1
0.303, -2.515e-5, 1.579e-4, 1.808e+1
0.304, -2.495e-5, 1.574e-4, 1.810e+1
0.305, -2.474e-5, 1.569e-4, 1.812e+1
0.306, -2.455e-5, 1.564e-4, 1.814e+1
0.307, -2.435e-5, 1.559e-4, 1.816e+1
0.308, -2.416e-5, 1.555e-4, 1.818e+1
0.309, -2.396e-5, 1.550e-4, 1.820e+1
0.310, -2.377e-5, 1.545e-4, 1.822e+1
0.311, -2.358e-5, 1.540e-4, 1.824e+1
0.312, -2.340e-5, 1.536e-4, 1.826e+1
0.313, -2.321e-5, 1.531e-4, 1.828e+1
0.314, -2.303e-5, 1.526e-4, 1.830e+1
0.315, -2.285e-5, 1.522e-4, 1.832e+1
0.316, -2.267e-5, 1.517e-4, 1.834e+1
0.317, -2.249e-5, 1.513e-4, 1.836e+1
0.318, -2.231e-5, 1.508e-4, 1.838e+1
0.319, -2.214e-5, 1.504e-4, 1.840e+1
0.320, -2.197e-5, 1.500e-4, 1.842e+1
0.321, -2.180e-5, 1.495e-4, 1.844e+1
0.322, -2.163e-5, 1.491e-4, 1.846e+1
0.323, -2.146e-5, 1.487e-4, 1.848e+1
0.324, -2.130e-5, 1.482e-4, 1.850e+1
0.325, -2.114e-5, 1.478e-4, 1.852e+1
0.326, -2.097e-5, 1.474e-4, 1.854e+1
0.327, -2.082e-5, 1.470e-4, 1.856e+1
0.328, -2.066e-5, 1.466e-4, 1.858e+1
0.329, -2.051e-5, 1.462e-4, 1.860e+1
0.330, -2.035e-5, 1.457e-4, 1.862e+1
0.331, -2.021e-5, 1.453e-4, 1.864e+1
0.332, -2.006e-5, 1.449e-4, 1.866e+1
0.333, -1.991e-5, 1.445e-4, 1.868e+1
0.334, -1.976e-5, 1.441e-4, 1.870e+1
0.335, -1.962e-5, 1.438e-4, 1.872e+1
0.336, -1.948e-5, 1.434e-4, 1.874e+1
0.337, -1.934e-5, 1.430e-4, 1.876e+1
0.338, -1.920e-5, 1.426e-4, 1.878e+1
0.339, -1.907e-5, 1.422e-4, 1.880e+1
0.340, -1.894e-5, 1.418e-4, 1.882e+1
0.341, -1.880e-5, 1.415e-4, 1.884e+1
0.342, -1.867e-5, 1.411e-4, 1.886e+1
0.343, -1.854e-5, 1.407e-4, 1.888e+1
0.344, -1.842e-5, 1.403e-4, 1.890e+1
0.345, -1.829e-5, 1.400e-4, 1.892e+1
0.346, -1.817e-5, 1.396e-4, 1.894e+1
0.347, -1.805e-5, 1.393e-4, 1.896e+1
0.348, -1.792e-5, 1.389e-4, 1.898e+1
0.349, -1.780e-5, 1.385e-4, 1.900e+1
0.350, -1.769e-5, 1.382e-4, 1.902e+1
0.351, -1.757e-5, 1.378e-4, 1.904e+1
0.352, -1.746e-5, 1.375e-4, 1.906e+1
0.353, -1.734e-5, 1.371e-4, 1.908e+1
0.354, -1.723e-5, 1.368e-4, 1.910e+1
0.355, -1.712e-5, 1.365e-4, 1.912e+1
0.356, -1.701e-5, 1.361e-4, 1.914e+1
0.357, -1.691e-5, 1.358e-4, 1.916e+1
0.358, -1.680e-5, 1.354e-4, 1.918e+1
0.359, -1.669e-5, 1.351e-4, 1.920e+1
0.360, -1.659e-5, 1.348e-4, 1.922e+1
0.361, -1.649e-5, 1.344e-4, 1.924e+1
0.362, -1.639e-5, 1.341e-4, 1.926e+1
0.363, -1.629e-5, 1.338e-4, 1.928e+1
0.364, -1.619e-5, 1.335e-4, 1.930e+1
0.365, -1.609e-5, 1.331e-4, 1.932e+1
0.366, -1.600e-5, 1.328e-4, 1.934e+1
0.367, -1.590e-5, 1.325e-4, 1.936e+1
0.368, -1.581e-5, 1.322e-4, 1.938e+1
0.369, -1.572e-5, 1.319e-4, 1.940e+1
0.370, -1.562e-5, 1.316e-4, 1.942e+1
0.371, -1.553e-5, 1.313e-4, 1.944e+1
0.372, -1.544e-5, 1.309e-4, 1.946e+1
0.373, -1.536e-5, 1.306e-4, 1.948e+1
0.374, -1.527e-5, 1.303e-4, 1.950e+1
0.375, -1.518e-5, 1.300e-4, 1.952e+1
0.376, -1.510e-5, 1.297e-4, 1.954e+1
0.377, -1.501e-5, 1.294e-4, 1.956e+1
0.378, -1.493e-5, 1.291e-4, 1.958e+1
0.379, -1.485e-5, 1.288e-4, 1.960e+1
0.380, -1.477e-5, 1.285e-4, 1.962e+1
0.381, -1.469e-5, 1.282e-4, 1.964e+1
0.382, -1.461e-5, 1.279e-4, 1.966e+1
0.383, -1.453e-5, 1.277e-4, 1.968e+1
0.384, -1.445e-5, 1.274e-4, 1.970e+1
0.385, -1.437e-5, 1.271e-4, 1.972e+1
0.386, -1.430e-5, 1.268e-4, 1.974e+1
0.387, -1.422e-5, 1.265e-4, 1.976e+1
0.388, -1.415e-5, 1.262e-4, 1.978e+1
0.389, -1.408e-5, 1.259e-4, 1.980e+1
0.390, -1.400e-5, 1.257e-4, 1.982e+1
0.391, -1.393e-5, 1.254e-4, 1.984e+1
0.392, -1.386e-5, 1.251e-4, 1.986e+1
0.393, -1.379e-5, 1.248e-4, 1.988e+1
0.394, -1.372e-5, 1.246e-4, 1.990e+1
0.395, -1.365e-5, 1.243e-4, 1.992e+1
0.396, -1.358e-5, 1.240e-4, 1.994e+1
0.397, -1.352e-5, 1.237e-4, 1.996e+1
0.398, -1.345e-5, 1.235e-4, 1.998e+1
0.399, -1.339e-5, 1.232e-4, 2.000e+1
0.400, -1.332e-5, 1.229e-4, 2.002e+1
0.401, -1.326e-5, 1.227e-4, 2.004e+1
0.402, -1.319e-5, 1.224e-4, 2.006e+1
0.403, -1.313e-5, 1.221e-4, 2.008e+1
0.404, -1.307e-5, 1.219e-4, 2.010e+1
0.405, -1.300e-5, 1.216e-4, 2.012e+1
0.406, -1.294e-5, 1.214e-4, 2.014e+1
0.407, -1.288e-5, 1.211e-4, 2.016e+1
0.408, -1.282e-5, 1.209e-4, 2.018e+1
0.409, -1.276e-5, 1.206e-4, 2.020e+1
0.410, -1.269e-5, 1.203e-4, 2.022e+1
0.411, -1.264e-5, 1.201e-4, 2.024e+1
0.412, -1.259e-5, 1.198e-4, 2.026e+1
0.413, -1.253e-5, 1.196e-4, 2.028e+1
0.414, -1.247e-5, 1.193e-4, 2.030e+1
0.415, -1.242e-5, 1.191e-4, 2.032e+1
0.416, -1.236e-5, 1.188e-4, 2.034e+1
0.417, -1.231e-5, 1.186e-4, 2.036e+1
0.418, -1.225e-5, 1.184e-4, 2.038e+1
0.419, -1.220e-5, 1.181e-4, 2.040e+1
0.420, -1.215e-5, 1.179e-4, 2.042e+1
0.421, -1.210e-5, 1.176e-4, 2.044e+1
0.422, -1.204e-5, 1.174e-4, 2.046e+1
0.423, -1.199e-5, 1.171e-4, 2.048e+1
0.424, -1.194e-5, 1.169e-4, 2.050e+1
0.425, -1.189e-5, 1.167e-4, 2.052e+1
0.426, -1.184e-5, 1.164e-4, 2.054e+1
0.427, -1.179e-5, 1.162e-4, 2.056e+1
0.428, -1.174e-5, 1.160e-4, 2.058e+1
0.429, -1.169e-5, 1.157e-4, 2.060e+1
0.430, -1.165e-5, 1.155e-4, 2.062e+1
0.431, -1.160e-5, 1.153e-4, 2.064e+1
0.432, -1.155e-5, 1.150e-4, 2.066e+1
0.433, -1.150e-5, 1.148e-4, 2.068e+1
0.434, -1.146e-5, 1.146e-4, 2.070e+1
0.435, -1.141e-5, 1.143e-4, 2.072e+1
0.436, -1.136e-5, 1.141e-4, 2.074e+1
0.437, -1.132e-5, 1.139e-4, 2.076e+1
0.438, -1.128e-5, 1.137e-4, 2.078e+1
0.439, -1.123e-5, 1.134e-4, 2.080e+1
0.440, -1.119e-5, 1.132e-4, 2.082e+1
0.441, -1.114e-5, 1.130e-4, 2.084e+1
0.442, -1.110e-5, 1.128e-4, 2.086e+1
0.443, -1.106e-5, 1.125e-4, 2.088e+1
0.444, -1.102e-5, 1.123e-4, 2.090e+1
0.445, -1.097e-5, 1.121e-4, 2.092e+1
0.446, -1.093e-5, 1.119e-4, 2.094e+1
0.447, -1.089e-5, 1.117e-4, 2.096e+1
0.448, -1.085e-5, 1.115e-4, 2.098e+1
0.449, -1.081e-5, 1.112e-4, 2.100e+1
0.450, -1.077e-5, 1.110e-4, 2.102e+1
0.451, -1.073e-5, 1.108e-4, 2.104e+1
0.452, -1.069e-5, 1.106e-4, 2.106e+1
0.453, -1.065e-5, 1.104e-4, 2.108e+1
0.454, -1.061e-5, 1.102e-4, 2.110e+1
0.455, -1.058e-5, 1.100e-4, 2.112e+1
0.456, -1.054e-5, 1.097e-4, 2.114e+1
0.457, -1.050e-5, 1.095e-4, 2.116e+1
0.458, -1.046e-5, 1.093e-4, 2.118e+1
0.459, -1.043e-5, 1.091e-4, 2.120e+1
0.460, -1.039e-5, 1.089e-4, 2.122e+1
0.461, -1.035e-5, 1.087e-4, 2.124e+1
0.462, -1.032e-5, 1.085e-4, 2.126e+1
0.463, -1.028e-5, 1.083e-4, 2.128e+1
0.464, -1.025e-5, 1.081e-4, 2.130e+1
0.465, -1.021e-5, 1.079e-4, 2.132e+1
0.466, -1.018e-5, 1.077e-4, 2.134e+1
0.467, -1.015e-5, 1.075e-4, 2.136e+1
0.468, -1.011e-5, 1.073e-4, 2.138e+1
0.469, -1.008e-5, 1.071e-4, 2.140e+1
0.470, -1.004e-5, 1.069e-4, 2.142e+1
0.471, -1.001e-5, 1.067e-4, 2.144e+1
0.472, -9.978e-6, 1.065e-4, 2.146e+1
0.473, -9.945e-6, 1.063e-4, 2.148e+1
0.474, -9.914e-6, 1.061e-4, 2.150e+1
0.475, -9.883e-6, 1.059e-4, 2.152e+1
0.476, -9.851e-6, 1.057e-4, 2.154e+1
0.477, -9.818e-6, 1.055e-4, 2.156e+1
0.478, -9.788e-6, 1.053e-4, 2.158e+1
0.479, -9.757e-6, 1.051e-4, 2.160e+1
0.480, -9.727e-6, 1.049e-4, 2.162e+1
0.481, -9.697e-6, 1.047e-4, 2.164e+1
0.482, -9.667e-6, 1.045e-4, 2.166e+1
0.483, -9.638e-6, 1.043e-4, 2.168e+1
0.484, -9.608e-6, 1.041e-4, 2.170e+1
0.485, -9.579e-6, 1.039e-4, 2.172e+1
0.486, -9.550e-6, 1.037e-4, 2.174e+1
0.487, -9.520e-6, 1.036e-4, 2.176e+1
0.488, -9.492e-6, 1.034e-4, 2.178e+1
0.489, -9.464e-6, 1.032e-4, 2.180e+1
0.490, -9.437e-6, 1.030e-4, 2.182e+1
0.491, -9.409e-6, 1.028e-4, 2.184e+1
0.492, -9.382e-6, 1.026e-4, 2.186e+1
0.493, -9.355e-6, 1.024e-4, 2.188e+1
0.494, -9.328e-6, 1.022e-4, 2.190e+1
0.495, -9.300e-6, 1.021e-4, 2.192e+1
0.496, -9.274e-6, 1.019e-4, 2.194e+1
0.497, -9.248e-6, 1.017e-4, 2.196e+1
0.498, -9.222e-6, 1.015e-4, 2.198e+1
0.499, -9.197e-6, 1.013e-4, 2.200e+1
0.500, -9.172e-6, 1.011e-4, 2.202e+1
0.501, -9.146e-6, 1.009e-4, 2.204e+1
0.502, -9.122e-6, 1.008e-4, 2.206e+1
0.503, -9.097e-6, 1.006e-4, 2.208e+1
0.504, -9.072e-6, 1.004e-4, 2.210e+1
0.505, -9.048e-6, 1.002e-4, 2.212e+1
0.506, -9.024e-6, 1.000e-4, 2.214e+1
0.507, -9.000e-6, 9.986e-5, 2.216e+1
0.508, -8.976e-6, 9.968e-5, 2.218e+1
0.509, -8.952e-6, 9.950e-5, 2.220e+1
0.510, -8.930e-6, 9.932e-5, 2.222e+1
0.511, -8.907e-6, 9.914e-5, 2.224e+1
0.512, -8.883e-6, 9.897e-5, 2.226e+1
0.513, -8.862e-6, 9.879e-5, 2.228e+1
0.514, -8.838e-6, 9.861e-5, 2.230e+1
0.515, -8.817e-6, 9.844e-5, 2.232e+1
0.516, -8.795e-6, 9.826e-5, 2.234e+1
0.517, -8.773e-6, 9.808e-5, 2.236e+1
0.518, -8.752e-6, 9.791e-5, 2.238e+1
0.519, -8.730e-6, 9.773e-5, 2.240e+1
0.520, -8.708e-6, 9.756e-5, 2.242e+1
0.521, -8.689e-6, 9.739e-5, 2.244e+1
0.522, -8.666e-6, 9.721e-5, 2.246e+1
0.523, -8.647e-6, 9.704e-5, 2.248e+1
0.524, -8.627e-6, 9.687e-5, 2.250e+1
0.525, -8.605e-6, 9.670e-5, 2.252e+1
0.526, -8.586e-6, 9.652e-5, 2.254e+1
0.527, -8.566e-6, 9.635e-5, 2.256e+1
0.528, -8.548e-6, 9.618e-5, 2.258e+1
0.529, -8.527e-6, 9.601e-5, 2.260e+1
0.530, -8.507e-6, 9.584e-5, 2.262e+1
0.531, -8.489e-6, 9.567e-5, 2.264e+1
0.532, -8.470e-6, 9.550e-5, 2.266e+1
0.533, -8.450e-6, 9.533e-5, 2.268e+1
0.534, -8.433e-6, 9.516e-5, 2.270e+1
0.535, -8.415e-6, 9.500e-5, 2.272e+1
0.536, -8.395e-6, 9.483e-5, 2.274e+1
0.537, -8.379e-6, 9.466e-5, 2.276e+1
0.538, -8.358e-6, 9.449e-5, 2.278e+1
0.539, -8.342e-6, 9.433e-5, 2.280e+1
0.540, -8.325e-6, 9.416e-5, 2.282e+1
0.541, -8.308e-6, 9.399e-5, 2.284e+1
0.542, -8.292e-6, 9.383e-5, 2.286e+1
0.543, -8.273e-6, 9.366e-5, 2.288e+1
0.544, -8.258e-6, 9.350e-5, 2.290e+1
0.545, -8.241e-6, 9.333e-5, 2.292e+1
0.546, -8.224e-6, 9.317e-5, 2.294e+1
0.547, -8.209e-6, 9.300e-5, 2.296e+1
0.548, -8.194e-6, 9.284e-5, 2.298e+1
0.549, -8.176e-6, 9.268e-5, 2.300e+1
0.550, -8.161e-6, 9.251e-5, 2.302e+1
0.551, -8.146e-6, 9.235e-5, 2.304e+1
0.552, -8.130e-6, 9.219e-5, 2.306e+1
0.553, -8.115e-6, 9.203e-5, 2.308e+1
0.554, -8.100e-6, 9.186e-5, 2.310e+1
0.555, -8.084e-6, 9.170e-5, 2.312e+1
0.556, -8.072e-6, 9.154e-5, 2.314e+1
0.557, -8.056e-6, 9.138e-5, 2.316e+1
0.558, -8.043e-6, 9.122e-5, 2.318e+1
0.559, -8.028e-6, 9.106e-5, 2.320e+1
0.560, -8.014e-6, 9.090e-5, 2.322e+1
0.561, -8.001e-6, 9.074e-5, 2.324e+1
0.562, -7.987e-6, 9.058e-5, 2.326e+1
0.563, -7.971e-6, 9.042e-5, 2.328e+1
0.564, -7.959e-6, 9.026e-5, 2.330e+1
0.565, -7.945e-6, 9.010e-5, 2.332e+1
0.566, -7.933e-6, 8.994e-5, 2.334e+1
0.567, -7.920e-6, 8.978e-5, 2.336e+1
0.568, -7.908e-6, 8.963e-5, 2.338e+1
0.569, -7.896e-6, 8.947e-5, 2.340e+1
0.570, -7.884e-6, 8.931e-5, 2.342e+1
0.571, -7.871e-6, 8.915e-5, 2.344e+1
0.572, -7.858e-6, 8.899e-5, 2.346e+1
0.573, -7.846e-6, 8.884e-5, 2.348e+1
0.574, -7.836e-6, 8.868e-5, 2.350e+1
0.575, -7.824e-6, 8.852e-5, 2.352e+1
0.576, -7.813e-6, 8.837e-5, 2.354e+1
0.577, -7.802e-6, 8.821e-5, 2.356e+1
0.578, -7.790e-6, 8.806e-5, 2.358e+1
0.579, -7.778e-6, 8.790e-5, 2.360e+1
0.580, -7.769e-6, 8.775e-5, 2.362e+1
0.581, -7.757e-6, 8.759e-5, 2.364e+1
0.582, -7.747e-6, 8.744e-5, 2.366e+1
0.583, -7.737e-6, 8.728e-5, 2.368e+1
0.584, -7.726e-6, 8.713e-5, 2.370e+1
0.585, -7.718e-6, 8.697e-5, 2.372e+1
0.586, -7.707e-6, 8.682e-5, 2.374e+1
0.587, -7.696e-6, 8.666e-5, 2.376e+1
0.588, -7.688e-6, 8.651e-5, 2.378e+1
0.589, -7.677e-6, 8.636e-5, 2.380e+1
0.590, -7.670e-6, 8.620e-5, 2.382e+1
0.591, -7.659e-6, 8.605e-5, 2.384e+1
0.592, -7.650e-6, 8.590e-5, 2.386e+1
0.593, -7.643e-6, 8.574e-5, 2.388e+1
0.594, -7.632e-6, 8.559e-5, 2.390e+1
0.595, -7.625e-6, 8.544e-5, 2.392e+1
0.596, -7.617e-6, 8.529e-5, 2.394e+1
0.597, -7.608e-6, 8.513e-5, 2.396e+1
0.598, -7.602e-6, 8.498e-5, 2.398e+1
0.599, -7.592e-6, 8.483e-5, 2.400e+1
