May 18, 2026   15:54:20
Cyclic Voltammetry
File: 5mv_s
Data Source:  Experiment
Instrument Model:  CHI660D
Header: 
Note: 

Init E (V) = 0.6
High E (V) = 0.6
Low E (V) = 0
Init P/N = N
Scan Rate (V/s) = 0.005
Segment = 2
Sample Interval (V) = 0.001
Quiet Time (sec) = 2
Sensitivity (A/V) = 1e-5

Segment 1:
Ep = 0.182V
Eh = 0.242V
ip = 1.592e-5A
Ah = 2.065e-4C

Segment 2:
Ep = 0.250V
Eh = 0.192V
ip = -1.380e-5A
Ah = -1.717e-4C

Potential/V, Current/A, Charge/C, Time/s

Segment 1:
0.600, -2.556e-6, -5.113e-7, 2.000e-1
0.599, -2.430e-6, -9.974e-7, 4.000e-1
0.598, -2.324e-6, -1.462e-6, 6.000e-1
0.597, -2.232e-6, -1.909e-6, 8.000e-1
0.596, -2.149e-6, -2.338e-6, 1.000e+0
0.595, -2.074e-6, -2.753e-6, 1.200e+0
0.594, -2.006e-6, -3.154e-6, 1.400e+0
0.593, -1.944e-6, -3.543e-6, 1.600e+0
0.592, -1.886e-6, -3.920e-6, 1.800e+0
0.591, -1.832e-6, -4.287e-6, 2.000e+0
0.590, -1.783e-6, -4.643e-6, 2.200e+0
0.589, -1.737e-6, -4.991e-6, 2.400e+0
0.588, -1.693e-6, -5.329e-6, 2.600e+0
0.587, -1.653e-6, -5.660e-6, 2.800e+0
0.586, -1.614e-6, -5.983e-6, 3.000e+0
0.585, -1.577e-6, -6.298e-6, 3.200e+0
0.584, -1.543e-6, -6.607e-6, 3.400e+0
0.583, -1.510e-6, -6.909e-6, 3.600e+0
0.582, -1.480e-6, -7.205e-6, 3.800e+0
0.581, -1.450e-6, -7.495e-6, 4.000e+0
0.580, -1.422e-6, -7.779e-6, 4.200e+0
0.579, -1.395e-6, -8.058e-6, 4.400e+0
0.578, -1.370e-6, -8.332e-6, 4.600e+0
0.577, -1.345e-6, -8.601e-6, 4.800e+0
0.576, -1.322e-6, -8.866e-6, 5.000e+0
0.575, -1.299e-6, -9.125e-6, 5.200e+0
0.574, -1.277e-6, -9.381e-6, 5.400e+0
0.573, -1.256e-6, -9.632e-6, 5.600e+0
0.572, -1.236e-6, -9.879e-6, 5.800e+0
0.571, -1.216e-6, -1.012e-5, 6.000e+0
0.570, -1.198e-6, -1.036e-5, 6.200e+0
0.569, -1.179e-6, -1.060e-5, 6.400e+0
0.568, -1.162e-6, -1.083e-5, 6.600e+0
0.567, -1.145e-6, -1.106e-5, 6.800e+0
0.566, -1.129e-6, -1.128e-5, 7.000e+0
0.565, -1.113e-6, -1.151e-5, 7.200e+0
0.564, -1.097e-6, -1.173e-5, 7.400e+0
0.563, -1.083e-6, -1.194e-5, 7.600e+0
0.562, -1.067e-6, -1.216e-5, 7.800e+0
0.561, -1.053e-6, -1.237e-5, 8.000e+0
0.560, -1.040e-6, -1.258e-5, 8.200e+0
0.559, -1.026e-6, -1.278e-5, 8.400e+0
0.558, -1.013e-6, -1.298e-5, 8.600e+0
0.557, -1.000e-6, -1.318e-5, 8.800e+0
0.556, -9.881e-7, -1.338e-5, 9.000e+0
0.555, -9.762e-7, -1.358e-5, 9.200e+0
0.554, -9.645e-7, -1.377e-5, 9.400e+0
0.553, -9.527e-7, -1.396e-5, 9.600e+0
0.552, -9.420e-7, -1.415e-5, 9.800e+0
0.551, -9.309e-7, -1.433e-5, 1.000e+1
0.550, -9.200e-7, -1.452e-5, 1.020e+1
0.549, -9.098e-7, -1.470e-5, 1.040e+1
0.548, -8.993e-7, -1.488e-5, 1.060e+1
0.547, -8.897e-7, -1.506e-5, 1.080e+1
0.546, -8.799e-7, -1.523e-5, 1.100e+1
0.545, -8.701e-7, -1.541e-5, 1.120e+1
0.544, -8.606e-7, -1.558e-5, 1.140e+1
0.543, -8.511e-7, -1.575e-5, 1.160e+1
0.542, -8.425e-7, -1.592e-5, 1.180e+1
0.541, -8.338e-7, -1.609e-5, 1.200e+1
0.540, -8.254e-7, -1.625e-5, 1.220e+1
0.539, -8.169e-7, -1.641e-5, 1.240e+1
0.538, -8.084e-7, -1.658e-5, 1.260e+1
0.537, -8.003e-7, -1.674e-5, 1.280e+1
0.536, -7.926e-7, -1.689e-5, 1.300e+1
0.535, -7.846e-7, -1.705e-5, 1.320e+1
0.534, -7.769e-7, -1.721e-5, 1.340e+1
0.533, -7.696e-7, -1.736e-5, 1.360e+1
0.532, -7.621e-7, -1.751e-5, 1.380e+1
0.531, -7.545e-7, -1.766e-5, 1.400e+1
0.530, -7.480e-7, -1.781e-5, 1.420e+1
0.529, -7.409e-7, -1.796e-5, 1.440e+1
0.528, -7.338e-7, -1.811e-5, 1.460e+1
0.527, -7.268e-7, -1.825e-5, 1.480e+1
0.526, -7.203e-7, -1.840e-5, 1.500e+1
0.525, -7.138e-7, -1.854e-5, 1.520e+1
0.524, -7.068e-7, -1.868e-5, 1.540e+1
0.523, -7.011e-7, -1.882e-5, 1.560e+1
0.522, -6.949e-7, -1.896e-5, 1.580e+1
0.521, -6.889e-7, -1.910e-5, 1.600e+1
0.520, -6.825e-7, -1.924e-5, 1.620e+1
0.519, -6.765e-7, -1.937e-5, 1.640e+1
0.518, -6.707e-7, -1.950e-5, 1.660e+1
0.517, -6.649e-7, -1.964e-5, 1.680e+1
0.516, -6.590e-7, -1.977e-5, 1.700e+1
0.515, -6.538e-7, -1.990e-5, 1.720e+1
0.514, -6.482e-7, -2.003e-5, 1.740e+1
0.513, -6.427e-7, -2.016e-5, 1.760e+1
0.512, -6.374e-7, -2.029e-5, 1.780e+1
0.511, -6.321e-7, -2.041e-5, 1.800e+1
0.510, -6.269e-7, -2.054e-5, 1.820e+1
0.509, -6.215e-7, -2.066e-5, 1.840e+1
0.508, -6.165e-7, -2.079e-5, 1.860e+1
0.507, -6.115e-7, -2.091e-5, 1.880e+1
0.506, -6.064e-7, -2.103e-5, 1.900e+1
0.505, -6.018e-7, -2.115e-5, 1.920e+1
0.504, -5.970e-7, -2.127e-5, 1.940e+1
0.503, -5.922e-7, -2.139e-5, 1.960e+1
0.502, -5.875e-7, -2.150e-5, 1.980e+1
0.501, -5.830e-7, -2.162e-5, 2.000e+1
0.500, -5.786e-7, -2.174e-5, 2.020e+1
0.499, -5.740e-7, -2.185e-5, 2.040e+1
0.498, -5.696e-7, -2.197e-5, 2.060e+1
0.497, -5.651e-7, -2.208e-5, 2.080e+1
0.496, -5.602e-7, -2.219e-5, 2.100e+1
0.495, -5.563e-7, -2.230e-5, 2.120e+1
0.494, -5.526e-7, -2.241e-5, 2.140e+1
0.493, -5.483e-7, -2.252e-5, 2.160e+1
0.492, -5.440e-7, -2.263e-5, 2.180e+1
0.491, -5.400e-7, -2.274e-5, 2.200e+1
0.490, -5.356e-7, -2.285e-5, 2.220e+1
0.489, -5.317e-7, -2.295e-5, 2.240e+1
0.488, -5.279e-7, -2.306e-5, 2.260e+1
0.487, -5.239e-7, -2.316e-5, 2.280e+1
0.486, -5.203e-7, -2.327e-5, 2.300e+1
0.485, -5.163e-7, -2.337e-5, 2.320e+1
0.484, -5.120e-7, -2.347e-5, 2.340e+1
0.483, -5.084e-7, -2.357e-5, 2.360e+1
0.482, -5.051e-7, -2.368e-5, 2.380e+1
0.481, -5.016e-7, -2.378e-5, 2.400e+1
0.480, -4.978e-7, -2.388e-5, 2.420e+1
0.479, -4.943e-7, -2.397e-5, 2.440e+1
0.478, -4.906e-7, -2.407e-5, 2.460e+1
0.477, -4.869e-7, -2.417e-5, 2.480e+1
0.476, -4.834e-7, -2.427e-5, 2.500e+1
0.475, -4.801e-7, -2.436e-5, 2.520e+1
0.474, -4.764e-7, -2.446e-5, 2.540e+1
0.473, -4.730e-7, -2.455e-5, 2.560e+1
0.472, -4.696e-7, -2.465e-5, 2.580e+1
0.471, -4.660e-7, -2.474e-5, 2.600e+1
0.470, -4.625e-7, -2.483e-5, 2.620e+1
0.469, -4.595e-7, -2.492e-5, 2.640e+1
0.468, -4.565e-7, -2.501e-5, 2.660e+1
0.467, -4.532e-7, -2.511e-5, 2.680e+1
0.466, -4.498e-7, -2.520e-5, 2.700e+1
0.465, -4.467e-7, -2.528e-5, 2.720e+1
0.464, -4.436e-7, -2.537e-5, 2.740e+1
0.463, -4.404e-7, -2.546e-5, 2.760e+1
0.462, -4.375e-7, -2.555e-5, 2.780e+1
0.461, -4.348e-7, -2.564e-5, 2.800e+1
0.460, -4.316e-7, -2.572e-5, 2.820e+1
0.459, -4.284e-7, -2.581e-5, 2.840e+1
0.458, -4.252e-7, -2.589e-5, 2.860e+1
0.457, -4.221e-7, -2.598e-5, 2.880e+1
0.456, -4.193e-7, -2.606e-5, 2.900e+1
0.455, -4.160e-7, -2.614e-5, 2.920e+1
0.454, -4.130e-7, -2.623e-5, 2.940e+1
0.453, -4.102e-7, -2.631e-5, 2.960e+1
0.452, -4.074e-7, -2.639e-5, 2.980e+1
0.451, -4.045e-7, -2.647e-5, 3.000e+1
0.450, -4.015e-7, -2.655e-5, 3.020e+1
0.449, -3.988e-7, -2.663e-5, 3.040e+1
0.448, -3.959e-7, -2.671e-5, 3.060e+1
0.447, -3.930e-7, -2.679e-5, 3.080e+1
0.446, -3.901e-7, -2.687e-5, 3.100e+1
0.445, -3.872e-7, -2.695e-5, 3.120e+1
0.444, -3.845e-7, -2.702e-5, 3.140e+1
0.443, -3.820e-7, -2.710e-5, 3.160e+1
0.442, -3.790e-7, -2.717e-5, 3.180e+1
0.441, -3.760e-7, -2.725e-5, 3.200e+1
0.440, -3.734e-7, -2.732e-5, 3.220e+1
0.439, -3.708e-7, -2.740e-5, 3.240e+1
0.438, -3.674e-7, -2.747e-5, 3.260e+1
0.437, -3.644e-7, -2.754e-5, 3.280e+1
0.436, -3.621e-7, -2.762e-5, 3.300e+1
0.435, -3.598e-7, -2.769e-5, 3.320e+1
0.434, -3.571e-7, -2.776e-5, 3.340e+1
0.433, -3.544e-7, -2.783e-5, 3.360e+1
0.432, -3.517e-7, -2.790e-5, 3.380e+1
0.431, -3.488e-7, -2.797e-5, 3.400e+1
0.430, -3.461e-7, -2.804e-5, 3.420e+1
0.429, -3.433e-7, -2.811e-5, 3.440e+1
0.428, -3.404e-7, -2.818e-5, 3.460e+1
0.427, -3.377e-7, -2.824e-5, 3.480e+1
0.426, -3.353e-7, -2.831e-5, 3.500e+1
0.425, -3.324e-7, -2.838e-5, 3.520e+1
0.424, -3.296e-7, -2.844e-5, 3.540e+1
0.423, -3.269e-7, -2.851e-5, 3.560e+1
0.422, -3.243e-7, -2.857e-5, 3.580e+1
0.421, -3.215e-7, -2.864e-5, 3.600e+1
0.420, -3.184e-7, -2.870e-5, 3.620e+1
0.419, -3.156e-7, -2.877e-5, 3.640e+1
0.418, -3.131e-7, -2.883e-5, 3.660e+1
0.417, -3.106e-7, -2.889e-5, 3.680e+1
0.416, -3.080e-7, -2.895e-5, 3.700e+1
0.415, -3.052e-7, -2.901e-5, 3.720e+1
0.414, -3.025e-7, -2.907e-5, 3.740e+1
0.413, -2.998e-7, -2.913e-5, 3.760e+1
0.412, -2.969e-7, -2.919e-5, 3.780e+1
0.411, -2.939e-7, -2.925e-5, 3.800e+1
0.410, -2.916e-7, -2.931e-5, 3.820e+1
0.409, -2.896e-7, -2.937e-5, 3.840e+1
0.408, -2.859e-7, -2.943e-5, 3.860e+1
0.407, -2.827e-7, -2.948e-5, 3.880e+1
0.406, -2.798e-7, -2.954e-5, 3.900e+1
0.405, -2.767e-7, -2.959e-5, 3.920e+1
0.404, -2.737e-7, -2.965e-5, 3.940e+1
0.403, -2.704e-7, -2.970e-5, 3.960e+1
0.402, -2.671e-7, -2.976e-5, 3.980e+1
0.401, -2.644e-7, -2.981e-5, 4.000e+1
0.400, -2.617e-7, -2.986e-5, 4.020e+1
0.399, -2.586e-7, -2.991e-5, 4.040e+1
0.398, -2.553e-7, -2.996e-5, 4.060e+1
0.397, -2.520e-7, -3.001e-5, 4.080e+1
0.396, -2.488e-7, -3.006e-5, 4.100e+1
0.395, -2.456e-7, -3.011e-5, 4.120e+1
0.394, -2.423e-7, -3.016e-5, 4.140e+1
0.393, -2.388e-7, -3.021e-5, 4.160e+1
0.392, -2.355e-7, -3.026e-5, 4.180e+1
0.391, -2.318e-7, -3.030e-5, 4.200e+1
0.390, -2.284e-7, -3.035e-5, 4.220e+1
0.389, -2.249e-7, -3.039e-5, 4.240e+1
0.388, -2.210e-7, -3.044e-5, 4.260e+1
0.387, -2.171e-7, -3.048e-5, 4.280e+1
0.386, -2.137e-7, -3.052e-5, 4.300e+1
0.385, -2.100e-7, -3.057e-5, 4.320e+1
0.384, -2.061e-7, -3.061e-5, 4.340e+1
0.383, -2.023e-7, -3.065e-5, 4.360e+1
0.382, -1.983e-7, -3.069e-5, 4.380e+1
0.381, -1.942e-7, -3.073e-5, 4.400e+1
0.380, -1.901e-7, -3.076e-5, 4.420e+1
0.379, -1.860e-7, -3.080e-5, 4.440e+1
0.378, -1.814e-7, -3.084e-5, 4.460e+1
0.377, -1.772e-7, -3.087e-5, 4.480e+1
0.376, -1.723e-7, -3.091e-5, 4.500e+1
0.375, -1.676e-7, -3.094e-5, 4.520e+1
0.374, -1.636e-7, -3.097e-5, 4.540e+1
0.373, -1.586e-7, -3.100e-5, 4.560e+1
0.372, -1.537e-7, -3.104e-5, 4.580e+1
0.371, -1.486e-7, -3.107e-5, 4.600e+1
0.370, -1.431e-7, -3.109e-5, 4.620e+1
0.369, -1.381e-7, -3.112e-5, 4.640e+1
0.368, -1.325e-7, -3.115e-5, 4.660e+1
0.367, -1.271e-7, -3.117e-5, 4.680e+1
0.366, -1.209e-7, -3.120e-5, 4.700e+1
0.365, -1.156e-7, -3.122e-5, 4.720e+1
0.364, -1.096e-7, -3.124e-5, 4.740e+1
0.363, -1.039e-7, -3.126e-5, 4.760e+1
0.362, -9.717e-8, -3.128e-5, 4.780e+1
0.361, -9.073e-8, -3.130e-5, 4.800e+1
0.360, -8.380e-8, -3.132e-5, 4.820e+1
0.359, -7.712e-8, -3.133e-5, 4.840e+1
0.358, -7.051e-8, -3.135e-5, 4.860e+1
0.357, -6.290e-8, -3.136e-5, 4.880e+1
0.356, -5.550e-8, -3.137e-5, 4.900e+1
0.355, -4.785e-8, -3.138e-5, 4.920e+1
0.354, -4.014e-8, -3.139e-5, 4.940e+1
0.353, -3.180e-8, -3.139e-5, 4.960e+1
0.352, -2.282e-8, -3.140e-5, 4.980e+1
0.351, -1.490e-8, -3.140e-5, 5.000e+1
0.350, -6.248e-9, -3.140e-5, 5.020e+1
0.349, 2.921e-9, -3.140e-5, 5.040e+1
0.348, 1.254e-8, -3.140e-5, 5.060e+1
0.347, 2.246e-8, -3.140e-5, 5.080e+1
0.346, 3.229e-8, -3.139e-5, 5.100e+1
0.345, 4.309e-8, -3.138e-5, 5.120e+1
0.344, 5.370e-8, -3.137e-5, 5.140e+1
0.343, 6.467e-8, -3.136e-5, 5.160e+1
0.342, 7.620e-8, -3.134e-5, 5.180e+1
0.341, 8.745e-8, -3.132e-5, 5.200e+1
0.340, 9.947e-8, -3.130e-5, 5.220e+1
0.339, 1.124e-7, -3.128e-5, 5.240e+1
0.338, 1.255e-7, -3.126e-5, 5.260e+1
0.337, 1.385e-7, -3.123e-5, 5.280e+1
0.336, 1.525e-7, -3.120e-5, 5.300e+1
0.335, 1.672e-7, -3.117e-5, 5.320e+1
0.334, 1.821e-7, -3.113e-5, 5.340e+1
0.333, 1.967e-7, -3.109e-5, 5.360e+1
0.332, 2.121e-7, -3.105e-5, 5.380e+1
0.331, 2.287e-7, -3.100e-5, 5.400e+1
0.330, 2.452e-7, -3.095e-5, 5.420e+1
0.329, 2.631e-7, -3.090e-5, 5.440e+1
0.328, 2.811e-7, -3.084e-5, 5.460e+1
0.327, 3.000e-7, -3.078e-5, 5.480e+1
0.326, 3.191e-7, -3.072e-5, 5.500e+1
0.325, 3.391e-7, -3.065e-5, 5.520e+1
0.324, 3.599e-7, -3.058e-5, 5.540e+1
0.323, 3.816e-7, -3.050e-5, 5.560e+1
0.322, 4.037e-7, -3.042e-5, 5.580e+1
0.321, 4.263e-7, -3.034e-5, 5.600e+1
0.320, 4.500e-7, -3.025e-5, 5.620e+1
0.319, 4.747e-7, -3.015e-5, 5.640e+1
0.318, 4.999e-7, -3.005e-5, 5.660e+1
0.317, 5.268e-7, -2.995e-5, 5.680e+1
0.316, 5.530e-7, -2.984e-5, 5.700e+1
0.315, 5.804e-7, -2.972e-5, 5.720e+1
0.314, 6.108e-7, -2.960e-5, 5.740e+1
0.313, 6.402e-7, -2.947e-5, 5.760e+1
0.312, 6.718e-7, -2.934e-5, 5.780e+1
0.311, 7.038e-7, -2.920e-5, 5.800e+1
0.310, 7.374e-7, -2.905e-5, 5.820e+1
0.309, 7.708e-7, -2.889e-5, 5.840e+1
0.308, 8.068e-7, -2.873e-5, 5.860e+1
0.307, 8.454e-7, -2.856e-5, 5.880e+1
0.306, 8.830e-7, -2.839e-5, 5.900e+1
0.305, 9.220e-7, -2.820e-5, 5.920e+1
0.304, 9.631e-7, -2.801e-5, 5.940e+1
0.303, 1.005e-6, -2.781e-5, 5.960e+1
0.302, 1.049e-6, -2.760e-5, 5.980e+1
0.301, 1.093e-6, -2.738e-5, 6.000e+1
0.300, 1.142e-6, -2.715e-5, 6.020e+1
0.299, 1.190e-6, -2.691e-5, 6.040e+1
0.298, 1.240e-6, -2.667e-5, 6.060e+1
0.297, 1.291e-6, -2.641e-5, 6.080e+1
0.296, 1.345e-6, -2.614e-5, 6.100e+1
0.295, 1.400e-6, -2.586e-5, 6.120e+1
0.294, 1.457e-6, -2.557e-5, 6.140e+1
0.293, 1.515e-6, -2.526e-5, 6.160e+1
0.292, 1.576e-6, -2.495e-5, 6.180e+1
0.291, 1.639e-6, -2.462e-5, 6.200e+1
0.290, 1.703e-6, -2.428e-5, 6.220e+1
0.289, 1.771e-6, -2.393e-5, 6.240e+1
0.288, 1.841e-6, -2.356e-5, 6.260e+1
0.287, 1.913e-6, -2.318e-5, 6.280e+1
0.286, 1.986e-6, -2.278e-5, 6.300e+1
0.285, 2.062e-6, -2.237e-5, 6.320e+1
0.284, 2.138e-6, -2.194e-5, 6.340e+1
0.283, 2.217e-6, -2.150e-5, 6.360e+1
0.282, 2.303e-6, -2.103e-5, 6.380e+1
0.281, 2.386e-6, -2.056e-5, 6.400e+1
0.280, 2.476e-6, -2.006e-5, 6.420e+1
0.279, 2.568e-6, -1.955e-5, 6.440e+1
0.278, 2.661e-6, -1.902e-5, 6.460e+1
0.277, 2.757e-6, -1.847e-5, 6.480e+1
0.276, 2.856e-6, -1.789e-5, 6.500e+1
0.275, 2.958e-6, -1.730e-5, 6.520e+1
0.274, 3.067e-6, -1.669e-5, 6.540e+1
0.273, 3.173e-6, -1.605e-5, 6.560e+1
0.272, 3.282e-6, -1.540e-5, 6.580e+1
0.271, 3.396e-6, -1.472e-5, 6.600e+1
0.270, 3.515e-6, -1.402e-5, 6.620e+1
0.269, 3.637e-6, -1.329e-5, 6.640e+1
0.268, 3.761e-6, -1.254e-5, 6.660e+1
0.267, 3.888e-6, -1.176e-5, 6.680e+1
0.266, 4.017e-6, -1.096e-5, 6.700e+1
0.265, 4.149e-6, -1.013e-5, 6.720e+1
0.264, 4.286e-6, -9.269e-6, 6.740e+1
0.263, 4.427e-6, -8.383e-6, 6.760e+1
0.262, 4.570e-6, -7.469e-6, 6.780e+1
0.261, 4.717e-6, -6.526e-6, 6.800e+1
0.260, 4.868e-6, -5.552e-6, 6.820e+1
0.259, 5.018e-6, -4.549e-6, 6.840e+1
0.258, 5.175e-6, -3.514e-6, 6.860e+1
0.257, 5.333e-6, -2.447e-6, 6.880e+1
0.256, 5.487e-6, -1.350e-6, 6.900e+1
0.255, 5.649e-6, -2.198e-7, 6.920e+1
0.254, 5.819e-6, 9.441e-7, 6.940e+1
0.253, 5.993e-6, 2.143e-6, 6.960e+1
0.252, 6.166e-6, 3.376e-6, 6.980e+1
0.251, 6.344e-6, 4.645e-6, 7.000e+1
0.250, 6.529e-6, 5.950e-6, 7.020e+1
0.249, 6.712e-6, 7.293e-6, 7.040e+1
0.248, 6.896e-6, 8.672e-6, 7.060e+1
0.247, 7.081e-6, 1.009e-5, 7.080e+1
0.246, 7.275e-6, 1.154e-5, 7.100e+1
0.245, 7.467e-6, 1.304e-5, 7.120e+1
0.244, 7.661e-6, 1.457e-5, 7.140e+1
0.243, 7.857e-6, 1.614e-5, 7.160e+1
0.242, 8.056e-6, 1.775e-5, 7.180e+1
0.241, 8.263e-6, 1.940e-5, 7.200e+1
0.240, 8.464e-6, 2.110e-5, 7.220e+1
0.239, 8.670e-6, 2.283e-5, 7.240e+1
0.238, 8.875e-6, 2.461e-5, 7.260e+1
0.237, 9.084e-6, 2.642e-5, 7.280e+1
0.236, 9.293e-6, 2.828e-5, 7.300e+1
0.235, 9.497e-6, 3.018e-5, 7.320e+1
0.234, 9.704e-6, 3.212e-5, 7.340e+1
0.233, 9.903e-6, 3.410e-5, 7.360e+1
0.232, 1.012e-5, 3.613e-5, 7.380e+1
0.231, 1.033e-5, 3.819e-5, 7.400e+1
0.230, 1.053e-5, 4.030e-5, 7.420e+1
0.229, 1.074e-5, 4.245e-5, 7.440e+1
0.228, 1.095e-5, 4.463e-5, 7.460e+1
0.227, 1.115e-5, 4.686e-5, 7.480e+1
0.226, 1.135e-5, 4.914e-5, 7.500e+1
0.225, 1.156e-5, 5.145e-5, 7.520e+1
0.224, 1.176e-5, 5.380e-5, 7.540e+1
0.223, 1.197e-5, 5.619e-5, 7.560e+1
0.222, 1.216e-5, 5.862e-5, 7.580e+1
0.221, 1.235e-5, 6.109e-5, 7.600e+1
0.220, 1.254e-5, 6.360e-5, 7.620e+1
0.219, 1.272e-5, 6.615e-5, 7.640e+1
0.218, 1.291e-5, 6.873e-5, 7.660e+1
0.217, 1.310e-5, 7.135e-5, 7.680e+1
0.216, 1.327e-5, 7.400e-5, 7.700e+1
0.215, 1.344e-5, 7.669e-5, 7.720e+1
0.214, 1.361e-5, 7.941e-5, 7.740e+1
0.213, 1.378e-5, 8.217e-5, 7.760e+1
0.212, 1.393e-5, 8.495e-5, 7.780e+1
0.211, 1.409e-5, 8.777e-5, 7.800e+1
0.210, 1.424e-5, 9.062e-5, 7.820e+1
0.209, 1.438e-5, 9.349e-5, 7.840e+1
0.208, 1.452e-5, 9.640e-5, 7.860e+1
0.207, 1.466e-5, 9.933e-5, 7.880e+1
0.206, 1.479e-5, 1.023e-4, 7.900e+1
0.205, 1.492e-5, 1.053e-4, 7.920e+1
0.204, 1.506e-5, 1.083e-4, 7.940e+1
0.203, 1.517e-5, 1.113e-4, 7.960e+1
0.202, 1.527e-5, 1.144e-4, 7.980e+1
0.201, 1.537e-5, 1.174e-4, 8.000e+1
0.200, 1.547e-5, 1.205e-4, 8.020e+1
0.199, 1.555e-5, 1.237e-4, 8.040e+1
0.198, 1.564e-5, 1.268e-4, 8.060e+1
0.197, 1.572e-5, 1.299e-4, 8.080e+1
0.196, 1.579e-5, 1.331e-4, 8.100e+1
0.195, 1.586e-5, 1.363e-4, 8.120e+1
0.194, 1.592e-5, 1.394e-4, 8.140e+1
0.193, 1.596e-5, 1.426e-4, 8.160e+1
0.192, 1.602e-5, 1.458e-4, 8.180e+1
0.191, 1.607e-5, 1.490e-4, 8.200e+1
0.190, 1.611e-5, 1.523e-4, 8.220e+1
0.189, 1.614e-5, 1.555e-4, 8.240e+1
0.188, 1.617e-5, 1.587e-4, 8.260e+1
0.187, 1.620e-5, 1.620e-4, 8.280e+1
0.186, 1.622e-5, 1.652e-4, 8.300e+1
0.185, 1.623e-5, 1.685e-4, 8.320e+1
0.184, 1.624e-5, 1.717e-4, 8.340e+1
0.183, 1.625e-5, 1.750e-4, 8.360e+1
0.182, 1.625e-5, 1.782e-4, 8.380e+1
0.181, 1.624e-5, 1.815e-4, 8.400e+1
0.180, 1.624e-5, 1.847e-4, 8.420e+1
0.179, 1.622e-5, 1.879e-4, 8.440e+1
0.178, 1.621e-5, 1.912e-4, 8.460e+1
0.177, 1.619e-5, 1.944e-4, 8.480e+1
0.176, 1.617e-5, 1.977e-4, 8.500e+1
0.175, 1.615e-5, 2.009e-4, 8.520e+1
0.174, 1.611e-5, 2.041e-4, 8.540e+1
0.173, 1.608e-5, 2.073e-4, 8.560e+1
0.172, 1.605e-5, 2.105e-4, 8.580e+1
0.171, 1.601e-5, 2.137e-4, 8.600e+1
0.170, 1.597e-5, 2.169e-4, 8.620e+1
0.169, 1.593e-5, 2.201e-4, 8.640e+1
0.168, 1.588e-5, 2.233e-4, 8.660e+1
0.167, 1.583e-5, 2.265e-4, 8.680e+1
0.166, 1.579e-5, 2.296e-4, 8.700e+1
0.165, 1.574e-5, 2.328e-4, 8.720e+1
0.164, 1.568e-5, 2.359e-4, 8.740e+1
0.163, 1.563e-5, 2.390e-4, 8.760e+1
0.162, 1.557e-5, 2.421e-4, 8.780e+1
0.161, 1.551e-5, 2.452e-4, 8.800e+1
0.160, 1.545e-5, 2.483e-4, 8.820e+1
0.159, 1.540e-5, 2.514e-4, 8.840e+1
0.158, 1.533e-5, 2.545e-4, 8.860e+1
0.157, 1.527e-5, 2.575e-4, 8.880e+1
0.156, 1.521e-5, 2.606e-4, 8.900e+1
0.155, 1.514e-5, 2.636e-4, 8.920e+1
0.154, 1.508e-5, 2.666e-4, 8.940e+1
0.153, 1.501e-5, 2.696e-4, 8.960e+1
0.152, 1.494e-5, 2.726e-4, 8.980e+1
0.151, 1.488e-5, 2.756e-4, 9.000e+1
0.150, 1.482e-5, 2.786e-4, 9.020e+1
0.149, 1.475e-5, 2.815e-4, 9.040e+1
0.148, 1.468e-5, 2.844e-4, 9.060e+1
0.147, 1.461e-5, 2.874e-4, 9.080e+1
0.146, 1.455e-5, 2.903e-4, 9.100e+1
0.145, 1.448e-5, 2.932e-4, 9.120e+1
0.144, 1.442e-5, 2.961e-4, 9.140e+1
0.143, 1.435e-5, 2.989e-4, 9.160e+1
0.142, 1.428e-5, 3.018e-4, 9.180e+1
0.141, 1.422e-5, 3.046e-4, 9.200e+1
0.140, 1.415e-5, 3.075e-4, 9.220e+1
0.139, 1.408e-5, 3.103e-4, 9.240e+1
0.138, 1.402e-5, 3.131e-4, 9.260e+1
0.137, 1.395e-5, 3.159e-4, 9.280e+1
0.136, 1.389e-5, 3.186e-4, 9.300e+1
0.135, 1.382e-5, 3.214e-4, 9.320e+1
0.134, 1.376e-5, 3.242e-4, 9.340e+1
0.133, 1.369e-5, 3.269e-4, 9.360e+1
0.132, 1.363e-5, 3.296e-4, 9.380e+1
0.131, 1.357e-5, 3.323e-4, 9.400e+1
0.130, 1.350e-5, 3.350e-4, 9.420e+1
0.129, 1.344e-5, 3.377e-4, 9.440e+1
0.128, 1.338e-5, 3.404e-4, 9.460e+1
0.127, 1.332e-5, 3.431e-4, 9.480e+1
0.126, 1.326e-5, 3.457e-4, 9.500e+1
0.125, 1.320e-5, 3.484e-4, 9.520e+1
0.124, 1.314e-5, 3.510e-4, 9.540e+1
0.123, 1.308e-5, 3.536e-4, 9.560e+1
0.122, 1.303e-5, 3.562e-4, 9.580e+1
0.121, 1.297e-5, 3.588e-4, 9.600e+1
0.120, 1.291e-5, 3.614e-4, 9.620e+1
0.119, 1.286e-5, 3.640e-4, 9.640e+1
0.118, 1.280e-5, 3.665e-4, 9.660e+1
0.117, 1.275e-5, 3.691e-4, 9.680e+1
0.116, 1.269e-5, 3.716e-4, 9.700e+1
0.115, 1.264e-5, 3.741e-4, 9.720e+1
0.114, 1.259e-5, 3.766e-4, 9.740e+1
0.113, 1.254e-5, 3.792e-4, 9.760e+1
0.112, 1.248e-5, 3.817e-4, 9.780e+1
0.111, 1.243e-5, 3.841e-4, 9.800e+1
0.110, 1.238e-5, 3.866e-4, 9.820e+1
0.109, 1.233e-5, 3.891e-4, 9.840e+1
0.108, 1.229e-5, 3.915e-4, 9.860e+1
0.107, 1.224e-5, 3.940e-4, 9.880e+1
0.106, 1.219e-5, 3.964e-4, 9.900e+1
0.105, 1.214e-5, 3.989e-4, 9.920e+1
0.104, 1.210e-5, 4.013e-4, 9.940e+1
0.103, 1.205e-5, 4.037e-4, 9.960e+1
0.102, 1.201e-5, 4.061e-4, 9.980e+1
0.101, 1.196e-5, 4.085e-4, 1.000e+2
0.100, 1.192e-5, 4.109e-4, 1.002e+2
0.099, 1.188e-5, 4.132e-4, 1.004e+2
0.098, 1.184e-5, 4.156e-4, 1.006e+2
0.097, 1.179e-5, 4.180e-4, 1.008e+2
0.096, 1.175e-5, 4.203e-4, 1.010e+2
0.095, 1.171e-5, 4.227e-4, 1.012e+2
0.094, 1.167e-5, 4.250e-4, 1.014e+2
0.093, 1.163e-5, 4.273e-4, 1.016e+2
0.092, 1.159e-5, 4.296e-4, 1.018e+2
0.091, 1.156e-5, 4.319e-4, 1.020e+2
0.090, 1.152e-5, 4.343e-4, 1.022e+2
0.089, 1.148e-5, 4.365e-4, 1.024e+2
0.088, 1.145e-5, 4.388e-4, 1.026e+2
0.087, 1.141e-5, 4.411e-4, 1.028e+2
0.086, 1.138e-5, 4.434e-4, 1.030e+2
0.085, 1.134e-5, 4.457e-4, 1.032e+2
0.084, 1.131e-5, 4.479e-4, 1.034e+2
0.083, 1.127e-5, 4.502e-4, 1.036e+2
0.082, 1.124e-5, 4.524e-4, 1.038e+2
0.081, 1.121e-5, 4.547e-4, 1.040e+2
0.080, 1.118e-5, 4.569e-4, 1.042e+2
0.079, 1.115e-5, 4.591e-4, 1.044e+2
0.078, 1.112e-5, 4.614e-4, 1.046e+2
0.077, 1.109e-5, 4.636e-4, 1.048e+2
0.076, 1.106e-5, 4.658e-4, 1.050e+2
0.075, 1.103e-5, 4.680e-4, 1.052e+2
0.074, 1.100e-5, 4.702e-4, 1.054e+2
0.073, 1.097e-5, 4.724e-4, 1.056e+2
0.072, 1.094e-5, 4.746e-4, 1.058e+2
0.071, 1.092e-5, 4.768e-4, 1.060e+2
0.070, 1.089e-5, 4.789e-4, 1.062e+2
0.069, 1.086e-5, 4.811e-4, 1.064e+2
0.068, 1.084e-5, 4.833e-4, 1.066e+2
0.067, 1.081e-5, 4.854e-4, 1.068e+2
0.066, 1.079e-5, 4.876e-4, 1.070e+2
0.065, 1.076e-5, 4.897e-4, 1.072e+2
0.064, 1.074e-5, 4.919e-4, 1.074e+2
0.063, 1.072e-5, 4.940e-4, 1.076e+2
0.062, 1.069e-5, 4.962e-4, 1.078e+2
0.061, 1.067e-5, 4.983e-4, 1.080e+2
0.060, 1.065e-5, 5.004e-4, 1.082e+2
0.059, 1.063e-5, 5.026e-4, 1.084e+2
0.058, 1.061e-5, 5.047e-4, 1.086e+2
0.057, 1.059e-5, 5.068e-4, 1.088e+2
0.056, 1.057e-5, 5.089e-4, 1.090e+2
0.055, 1.055e-5, 5.110e-4, 1.092e+2
0.054, 1.053e-5, 5.131e-4, 1.094e+2
0.053, 1.051e-5, 5.152e-4, 1.096e+2
0.052, 1.049e-5, 5.173e-4, 1.098e+2
0.051, 1.047e-5, 5.194e-4, 1.100e+2
0.050, 1.045e-5, 5.215e-4, 1.102e+2
0.049, 1.044e-5, 5.236e-4, 1.104e+2
0.048, 1.042e-5, 5.257e-4, 1.106e+2
0.047, 1.040e-5, 5.278e-4, 1.108e+2
0.046, 1.038e-5, 5.298e-4, 1.110e+2
0.045, 1.037e-5, 5.319e-4, 1.112e+2
0.044, 1.035e-5, 5.340e-4, 1.114e+2
0.043, 1.034e-5, 5.361e-4, 1.116e+2
0.042, 1.032e-5, 5.381e-4, 1.118e+2
0.041, 1.031e-5, 5.402e-4, 1.120e+2
0.040, 1.030e-5, 5.422e-4, 1.122e+2
0.039, 1.028e-5, 5.443e-4, 1.124e+2
0.038, 1.027e-5, 5.464e-4, 1.126e+2
0.037, 1.026e-5, 5.484e-4, 1.128e+2
0.036, 1.024e-5, 5.505e-4, 1.130e+2
0.035, 1.023e-5, 5.525e-4, 1.132e+2
0.034, 1.022e-5, 5.545e-4, 1.134e+2
0.033, 1.021e-5, 5.566e-4, 1.136e+2
0.032, 1.020e-5, 5.586e-4, 1.138e+2
0.031, 1.018e-5, 5.607e-4, 1.140e+2
0.030, 1.017e-5, 5.627e-4, 1.142e+2
0.029, 1.016e-5, 5.647e-4, 1.144e+2
0.028, 1.015e-5, 5.668e-4, 1.146e+2
0.027, 1.014e-5, 5.688e-4, 1.148e+2
0.026, 1.014e-5, 5.708e-4, 1.150e+2
0.025, 1.013e-5, 5.728e-4, 1.152e+2
0.024, 1.012e-5, 5.749e-4, 1.154e+2
0.023, 1.011e-5, 5.769e-4, 1.156e+2
0.022, 1.010e-5, 5.789e-4, 1.158e+2
0.021, 1.009e-5, 5.809e-4, 1.160e+2
0.020, 1.009e-5, 5.829e-4, 1.162e+2
0.019, 1.008e-5, 5.850e-4, 1.164e+2
0.018, 1.007e-5, 5.870e-4, 1.166e+2
0.017, 1.007e-5, 5.890e-4, 1.168e+2
0.016, 1.006e-5, 5.910e-4, 1.170e+2
0.015, 1.005e-5, 5.930e-4, 1.172e+2
0.014, 1.005e-5, 5.950e-4, 1.174e+2
0.013, 1.004e-5, 5.970e-4, 1.176e+2
0.012, 1.004e-5, 5.990e-4, 1.178e+2
0.011, 1.004e-5, 6.010e-4, 1.180e+2
0.010, 1.003e-5, 6.030e-4, 1.182e+2
0.009, 1.003e-5, 6.051e-4, 1.184e+2
0.008, 1.002e-5, 6.071e-4, 1.186e+2
0.007, 1.002e-5, 6.091e-4, 1.188e+2
0.006, 1.002e-5, 6.111e-4, 1.190e+2
0.005, 1.002e-5, 6.131e-4, 1.192e+2
0.004, 1.001e-5, 6.151e-4, 1.194e+2
0.003, 1.001e-5, 6.171e-4, 1.196e+2
0.002, 1.001e-5, 6.191e-4, 1.198e+2
0.001, 1.001e-5, 6.211e-4, 1.200e+2

Segment 2:
0.000, 9.992e-6, 6.231e-4, 1.202e+2
0.001, 9.925e-6, 6.251e-4, 1.204e+2
0.002, 9.864e-6, 6.270e-4, 1.206e+2
0.003, 9.809e-6, 6.290e-4, 1.208e+2
0.004, 9.759e-6, 6.309e-4, 1.210e+2
0.005, 9.710e-6, 6.329e-4, 1.212e+2
0.006, 9.663e-6, 6.348e-4, 1.214e+2
0.007, 9.618e-6, 6.367e-4, 1.216e+2
0.008, 9.574e-6, 6.387e-4, 1.218e+2
0.009, 9.531e-6, 6.406e-4, 1.220e+2
0.010, 9.489e-6, 6.425e-4, 1.222e+2
0.011, 9.448e-6, 6.444e-4, 1.224e+2
0.012, 9.409e-6, 6.462e-4, 1.226e+2
0.013, 9.370e-6, 6.481e-4, 1.228e+2
0.014, 9.332e-6, 6.500e-4, 1.230e+2
0.015, 9.294e-6, 6.518e-4, 1.232e+2
0.016, 9.258e-6, 6.537e-4, 1.234e+2
0.017, 9.222e-6, 6.555e-4, 1.236e+2
0.018, 9.187e-6, 6.574e-4, 1.238e+2
0.019, 9.153e-6, 6.592e-4, 1.240e+2
0.020, 9.119e-6, 6.610e-4, 1.242e+2
0.021, 9.086e-6, 6.628e-4, 1.244e+2
0.022, 9.053e-6, 6.647e-4, 1.246e+2
0.023, 9.020e-6, 6.665e-4, 1.248e+2
0.024, 8.988e-6, 6.683e-4, 1.250e+2
0.025, 8.957e-6, 6.700e-4, 1.252e+2
0.026, 8.927e-6, 6.718e-4, 1.254e+2
0.027, 8.897e-6, 6.736e-4, 1.256e+2
0.028, 8.866e-6, 6.754e-4, 1.258e+2
0.029, 8.837e-6, 6.771e-4, 1.260e+2
0.030, 8.807e-6, 6.789e-4, 1.262e+2
0.031, 8.778e-6, 6.807e-4, 1.264e+2
0.032, 8.750e-6, 6.824e-4, 1.266e+2
0.033, 8.722e-6, 6.842e-4, 1.268e+2
0.034, 8.694e-6, 6.859e-4, 1.270e+2
0.035, 8.667e-6, 6.876e-4, 1.272e+2
0.036, 8.640e-6, 6.894e-4, 1.274e+2
0.037, 8.613e-6, 6.911e-4, 1.276e+2
0.038, 8.586e-6, 6.928e-4, 1.278e+2
0.039, 8.560e-6, 6.945e-4, 1.280e+2
0.040, 8.534e-6, 6.962e-4, 1.282e+2
0.041, 8.508e-6, 6.979e-4, 1.284e+2
0.042, 8.482e-6, 6.996e-4, 1.286e+2
0.043, 8.457e-6, 7.013e-4, 1.288e+2
0.044, 8.432e-6, 7.030e-4, 1.290e+2
0.045, 8.407e-6, 7.047e-4, 1.292e+2
0.046, 8.383e-6, 7.064e-4, 1.294e+2
0.047, 8.358e-6, 7.080e-4, 1.296e+2
0.048, 8.334e-6, 7.097e-4, 1.298e+2
0.049, 8.310e-6, 7.114e-4, 1.300e+2
0.050, 8.286e-6, 7.130e-4, 1.302e+2
0.051, 8.263e-6, 7.147e-4, 1.304e+2
0.052, 8.240e-6, 7.163e-4, 1.306e+2
0.053, 8.216e-6, 7.180e-4, 1.308e+2
0.054, 8.193e-6, 7.196e-4, 1.310e+2
0.055, 8.170e-6, 7.212e-4, 1.312e+2
0.056, 8.147e-6, 7.229e-4, 1.314e+2
0.057, 8.125e-6, 7.245e-4, 1.316e+2
0.058, 8.102e-6, 7.261e-4, 1.318e+2
0.059, 8.079e-6, 7.277e-4, 1.320e+2
0.060, 8.057e-6, 7.293e-4, 1.322e+2
0.061, 8.034e-6, 7.309e-4, 1.324e+2
0.062, 8.012e-6, 7.325e-4, 1.326e+2
0.063, 7.990e-6, 7.341e-4, 1.328e+2
0.064, 7.968e-6, 7.357e-4, 1.330e+2
0.065, 7.945e-6, 7.373e-4, 1.332e+2
0.066, 7.923e-6, 7.389e-4, 1.334e+2
0.067, 7.901e-6, 7.405e-4, 1.336e+2
0.068, 7.879e-6, 7.421e-4, 1.338e+2
0.069, 7.857e-6, 7.436e-4, 1.340e+2
0.070, 7.835e-6, 7.452e-4, 1.342e+2
0.071, 7.812e-6, 7.468e-4, 1.344e+2
0.072, 7.790e-6, 7.483e-4, 1.346e+2
0.073, 7.768e-6, 7.499e-4, 1.348e+2
0.074, 7.746e-6, 7.514e-4, 1.350e+2
0.075, 7.724e-6, 7.530e-4, 1.352e+2
0.076, 7.702e-6, 7.545e-4, 1.354e+2
0.077, 7.680e-6, 7.560e-4, 1.356e+2
0.078, 7.657e-6, 7.576e-4, 1.358e+2
0.079, 7.635e-6, 7.591e-4, 1.360e+2
0.080, 7.613e-6, 7.606e-4, 1.362e+2
0.081, 7.590e-6, 7.621e-4, 1.364e+2
0.082, 7.567e-6, 7.637e-4, 1.366e+2
0.083, 7.544e-6, 7.652e-4, 1.368e+2
0.084, 7.521e-6, 7.667e-4, 1.370e+2
0.085, 7.498e-6, 7.682e-4, 1.372e+2
0.086, 7.474e-6, 7.697e-4, 1.374e+2
0.087, 7.451e-6, 7.712e-4, 1.376e+2
0.088, 7.427e-6, 7.726e-4, 1.378e+2
0.089, 7.403e-6, 7.741e-4, 1.380e+2
0.090, 7.378e-6, 7.756e-4, 1.382e+2
0.091, 7.354e-6, 7.771e-4, 1.384e+2
0.092, 7.329e-6, 7.785e-4, 1.386e+2
0.093, 7.305e-6, 7.800e-4, 1.388e+2
0.094, 7.280e-6, 7.814e-4, 1.390e+2
0.095, 7.254e-6, 7.829e-4, 1.392e+2
0.096, 7.228e-6, 7.843e-4, 1.394e+2
0.097, 7.201e-6, 7.858e-4, 1.396e+2
0.098, 7.175e-6, 7.872e-4, 1.398e+2
0.099, 7.148e-6, 7.887e-4, 1.400e+2
0.100, 7.120e-6, 7.901e-4, 1.402e+2
0.101, 7.093e-6, 7.915e-4, 1.404e+2
0.102, 7.064e-6, 7.929e-4, 1.406e+2
0.103, 7.035e-6, 7.943e-4, 1.408e+2
0.104, 7.006e-6, 7.957e-4, 1.410e+2
0.105, 6.976e-6, 7.971e-4, 1.412e+2
0.106, 6.946e-6, 7.985e-4, 1.414e+2
0.107, 6.915e-6, 7.999e-4, 1.416e+2
0.108, 6.884e-6, 8.013e-4, 1.418e+2
0.109, 6.851e-6, 8.026e-4, 1.420e+2
0.110, 6.818e-6, 8.040e-4, 1.422e+2
0.111, 6.785e-6, 8.053e-4, 1.424e+2
0.112, 6.751e-6, 8.067e-4, 1.426e+2
0.113, 6.716e-6, 8.080e-4, 1.428e+2
0.114, 6.681e-6, 8.094e-4, 1.430e+2
0.115, 6.644e-6, 8.107e-4, 1.432e+2
0.116, 6.607e-6, 8.120e-4, 1.434e+2
0.117, 6.571e-6, 8.133e-4, 1.436e+2
0.118, 6.532e-6, 8.147e-4, 1.438e+2
0.119, 6.491e-6, 8.159e-4, 1.440e+2
0.120, 6.451e-6, 8.172e-4, 1.442e+2
0.121, 6.409e-6, 8.185e-4, 1.444e+2
0.122, 6.365e-6, 8.198e-4, 1.446e+2
0.123, 6.322e-6, 8.211e-4, 1.448e+2
0.124, 6.277e-6, 8.223e-4, 1.450e+2
0.125, 6.232e-6, 8.236e-4, 1.452e+2
0.126, 6.184e-6, 8.248e-4, 1.454e+2
0.127, 6.136e-6, 8.260e-4, 1.456e+2
0.128, 6.086e-6, 8.272e-4, 1.458e+2
0.129, 6.037e-6, 8.284e-4, 1.460e+2
0.130, 5.985e-6, 8.296e-4, 1.462e+2
0.131, 5.930e-6, 8.308e-4, 1.464e+2
0.132, 5.875e-6, 8.320e-4, 1.466e+2
0.133, 5.818e-6, 8.332e-4, 1.468e+2
0.134, 5.759e-6, 8.343e-4, 1.470e+2
0.135, 5.699e-6, 8.355e-4, 1.472e+2
0.136, 5.638e-6, 8.366e-4, 1.474e+2
0.137, 5.575e-6, 8.377e-4, 1.476e+2
0.138, 5.510e-6, 8.388e-4, 1.478e+2
0.139, 5.444e-6, 8.399e-4, 1.480e+2
0.140, 5.374e-6, 8.410e-4, 1.482e+2
0.141, 5.303e-6, 8.420e-4, 1.484e+2
0.142, 5.229e-6, 8.431e-4, 1.486e+2
0.143, 5.155e-6, 8.441e-4, 1.488e+2
0.144, 5.079e-6, 8.451e-4, 1.490e+2
0.145, 5.001e-6, 8.461e-4, 1.492e+2
0.146, 4.921e-6, 8.471e-4, 1.494e+2
0.147, 4.836e-6, 8.481e-4, 1.496e+2
0.148, 4.750e-6, 8.490e-4, 1.498e+2
0.149, 4.664e-6, 8.500e-4, 1.500e+2
0.150, 4.572e-6, 8.509e-4, 1.502e+2
0.151, 4.480e-6, 8.518e-4, 1.504e+2
0.152, 4.384e-6, 8.526e-4, 1.506e+2
0.153, 4.287e-6, 8.535e-4, 1.508e+2
0.154, 4.194e-6, 8.543e-4, 1.510e+2
0.155, 4.088e-6, 8.552e-4, 1.512e+2
0.156, 3.981e-6, 8.560e-4, 1.514e+2
0.157, 3.873e-6, 8.567e-4, 1.516e+2
0.158, 3.759e-6, 8.575e-4, 1.518e+2
0.159, 3.647e-6, 8.582e-4, 1.520e+2
0.160, 3.528e-6, 8.589e-4, 1.522e+2
0.161, 3.408e-6, 8.596e-4, 1.524e+2
0.162, 3.284e-6, 8.603e-4, 1.526e+2
0.163, 3.156e-6, 8.609e-4, 1.528e+2
0.164, 3.025e-6, 8.615e-4, 1.530e+2
0.165, 2.894e-6, 8.621e-4, 1.532e+2
0.166, 2.758e-6, 8.626e-4, 1.534e+2
0.167, 2.618e-6, 8.631e-4, 1.536e+2
0.168, 2.475e-6, 8.636e-4, 1.538e+2
0.169, 2.328e-6, 8.641e-4, 1.540e+2
0.170, 2.183e-6, 8.645e-4, 1.542e+2
0.171, 2.027e-6, 8.649e-4, 1.544e+2
0.172, 1.874e-6, 8.653e-4, 1.546e+2
0.173, 1.715e-6, 8.657e-4, 1.548e+2
0.174, 1.555e-6, 8.660e-4, 1.550e+2
0.175, 1.390e-6, 8.663e-4, 1.552e+2
0.176, 1.221e-6, 8.665e-4, 1.554e+2
0.177, 1.045e-6, 8.667e-4, 1.556e+2
0.178, 8.747e-7, 8.669e-4, 1.558e+2
0.179, 6.977e-7, 8.670e-4, 1.560e+2
0.180, 5.186e-7, 8.671e-4, 1.562e+2
0.181, 3.351e-7, 8.672e-4, 1.564e+2
0.182, 1.485e-7, 8.672e-4, 1.566e+2
0.183, -4.197e-8, 8.672e-4, 1.568e+2
0.184, -2.362e-7, 8.672e-4, 1.570e+2
0.185, -4.247e-7, 8.671e-4, 1.572e+2
0.186, -6.212e-7, 8.670e-4, 1.574e+2
0.187, -8.268e-7, 8.668e-4, 1.576e+2
0.188, -1.022e-6, 8.666e-4, 1.578e+2
0.189, -1.227e-6, 8.663e-4, 1.580e+2
0.190, -1.437e-6, 8.661e-4, 1.582e+2
0.191, -1.644e-6, 8.657e-4, 1.584e+2
0.192, -1.855e-6, 8.654e-4, 1.586e+2
0.193, -2.066e-6, 8.649e-4, 1.588e+2
0.194, -2.273e-6, 8.645e-4, 1.590e+2
0.195, -2.489e-6, 8.640e-4, 1.592e+2
0.196, -2.705e-6, 8.634e-4, 1.594e+2
0.197, -2.917e-6, 8.629e-4, 1.596e+2
0.198, -3.135e-6, 8.622e-4, 1.598e+2
0.199, -3.349e-6, 8.616e-4, 1.600e+2
0.200, -3.566e-6, 8.609e-4, 1.602e+2
0.201, -3.779e-6, 8.601e-4, 1.604e+2
0.202, -3.994e-6, 8.593e-4, 1.606e+2
0.203, -4.215e-6, 8.585e-4, 1.608e+2
0.204, -4.427e-6, 8.576e-4, 1.610e+2
0.205, -4.664e-6, 8.566e-4, 1.612e+2
0.206, -4.883e-6, 8.557e-4, 1.614e+2
0.207, -5.081e-6, 8.546e-4, 1.616e+2
0.208, -5.288e-6, 8.536e-4, 1.618e+2
0.209, -5.491e-6, 8.525e-4, 1.620e+2
0.210, -5.692e-6, 8.514e-4, 1.622e+2
0.211, -5.896e-6, 8.502e-4, 1.624e+2
0.212, -6.095e-6, 8.490e-4, 1.626e+2
0.213, -6.289e-6, 8.477e-4, 1.628e+2
0.214, -6.478e-6, 8.464e-4, 1.630e+2
0.215, -6.668e-6, 8.451e-4, 1.632e+2
0.216, -6.853e-6, 8.437e-4, 1.634e+2
0.217, -7.028e-6, 8.423e-4, 1.636e+2
0.218, -7.206e-6, 8.408e-4, 1.638e+2
0.219, -7.376e-6, 8.394e-4, 1.640e+2
0.220, -7.541e-6, 8.379e-4, 1.642e+2
0.221, -7.707e-6, 8.363e-4, 1.644e+2
0.222, -7.867e-6, 8.348e-4, 1.646e+2
0.223, -8.013e-6, 8.331e-4, 1.648e+2
0.224, -8.161e-6, 8.315e-4, 1.650e+2
0.225, -8.305e-6, 8.299e-4, 1.652e+2
0.226, -8.439e-6, 8.282e-4, 1.654e+2
0.227, -8.571e-6, 8.265e-4, 1.656e+2
0.228, -8.698e-6, 8.247e-4, 1.658e+2
0.229, -8.817e-6, 8.229e-4, 1.660e+2
0.230, -8.932e-6, 8.212e-4, 1.662e+2
0.231, -9.026e-6, 8.194e-4, 1.664e+2
0.232, -9.129e-6, 8.175e-4, 1.666e+2
0.233, -9.230e-6, 8.157e-4, 1.668e+2
0.234, -9.322e-6, 8.138e-4, 1.670e+2
0.235, -9.412e-6, 8.119e-4, 1.672e+2
0.236, -9.487e-6, 8.100e-4, 1.674e+2
0.237, -9.559e-6, 8.081e-4, 1.676e+2
0.238, -9.629e-6, 8.062e-4, 1.678e+2
0.239, -9.685e-6, 8.043e-4, 1.680e+2
0.240, -9.738e-6, 8.023e-4, 1.682e+2
0.241, -9.788e-6, 8.004e-4, 1.684e+2
0.242, -9.830e-6, 7.984e-4, 1.686e+2
0.243, -9.875e-6, 7.964e-4, 1.688e+2
0.244, -9.906e-6, 7.944e-4, 1.690e+2
0.245, -9.931e-6, 7.925e-4, 1.692e+2
0.246, -9.954e-6, 7.905e-4, 1.694e+2
0.247, -9.969e-6, 7.885e-4, 1.696e+2
0.248, -9.980e-6, 7.865e-4, 1.698e+2
0.249, -9.989e-6, 7.845e-4, 1.700e+2
0.250, -9.997e-6, 7.825e-4, 1.702e+2
0.251, -9.994e-6, 7.805e-4, 1.704e+2
0.252, -9.989e-6, 7.785e-4, 1.706e+2
0.253, -9.979e-6, 7.765e-4, 1.708e+2
0.254, -9.965e-6, 7.745e-4, 1.710e+2
0.255, -9.945e-6, 7.725e-4, 1.712e+2
0.256, -9.919e-6, 7.705e-4, 1.714e+2
0.257, -9.892e-6, 7.685e-4, 1.716e+2
0.258, -9.862e-6, 7.666e-4, 1.718e+2
0.259, -9.834e-6, 7.646e-4, 1.720e+2
0.260, -9.802e-6, 7.626e-4, 1.722e+2
0.261, -9.761e-6, 7.607e-4, 1.724e+2
0.262, -9.724e-6, 7.587e-4, 1.726e+2
0.263, -9.685e-6, 7.568e-4, 1.728e+2
0.264, -9.638e-6, 7.549e-4, 1.730e+2
0.265, -9.590e-6, 7.530e-4, 1.732e+2
0.266, -9.537e-6, 7.511e-4, 1.734e+2
0.267, -9.485e-6, 7.492e-4, 1.736e+2
0.268, -9.432e-6, 7.473e-4, 1.738e+2
0.269, -9.378e-6, 7.454e-4, 1.740e+2
0.270, -9.322e-6, 7.435e-4, 1.742e+2
0.271, -9.261e-6, 7.417e-4, 1.744e+2
0.272, -9.200e-6, 7.398e-4, 1.746e+2
0.273, -9.140e-6, 7.380e-4, 1.748e+2
0.274, -9.074e-6, 7.362e-4, 1.750e+2
0.275, -9.010e-6, 7.344e-4, 1.752e+2
0.276, -8.947e-6, 7.326e-4, 1.754e+2
0.277, -8.881e-6, 7.308e-4, 1.756e+2
0.278, -8.815e-6, 7.291e-4, 1.758e+2
0.279, -8.748e-6, 7.273e-4, 1.760e+2
0.280, -8.679e-6, 7.256e-4, 1.762e+2
0.281, -8.611e-6, 7.239e-4, 1.764e+2
0.282, -8.538e-6, 7.221e-4, 1.766e+2
0.283, -8.472e-6, 7.205e-4, 1.768e+2
0.284, -8.403e-6, 7.188e-4, 1.770e+2
0.285, -8.334e-6, 7.171e-4, 1.772e+2
0.286, -8.266e-6, 7.155e-4, 1.774e+2
0.287, -8.197e-6, 7.138e-4, 1.776e+2
0.288, -8.126e-6, 7.122e-4, 1.778e+2
0.289, -8.057e-6, 7.106e-4, 1.780e+2
0.290, -7.987e-6, 7.090e-4, 1.782e+2
0.291, -7.916e-6, 7.074e-4, 1.784e+2
0.292, -7.847e-6, 7.058e-4, 1.786e+2
0.293, -7.779e-6, 7.043e-4, 1.788e+2
0.294, -7.709e-6, 7.027e-4, 1.790e+2
0.295, -7.641e-6, 7.012e-4, 1.792e+2
0.296, -7.575e-6, 6.997e-4, 1.794e+2
0.297, -7.506e-6, 6.982e-4, 1.796e+2
0.298, -7.439e-6, 6.967e-4, 1.798e+2
0.299, -7.372e-6, 6.952e-4, 1.800e+2
0.300, -7.305e-6, 6.938e-4, 1.802e+2
0.301, -7.240e-6, 6.923e-4, 1.804e+2
0.302, -7.176e-6, 6.909e-4, 1.806e+2
0.303, -7.110e-6, 6.895e-4, 1.808e+2
0.304, -7.045e-6, 6.880e-4, 1.810e+2
0.305, -6.982e-6, 6.867e-4, 1.812e+2
0.306, -6.918e-6, 6.853e-4, 1.814e+2
0.307, -6.856e-6, 6.839e-4, 1.816e+2
0.308, -6.795e-6, 6.825e-4, 1.818e+2
0.309, -6.734e-6, 6.812e-4, 1.820e+2
0.310, -6.673e-6, 6.799e-4, 1.822e+2
0.311, -6.613e-6, 6.785e-4, 1.824e+2
0.312, -6.553e-6, 6.772e-4, 1.826e+2
0.313, -6.494e-6, 6.759e-4, 1.828e+2
0.314, -6.436e-6, 6.746e-4, 1.830e+2
0.315, -6.380e-6, 6.734e-4, 1.832e+2
0.316, -6.322e-6, 6.721e-4, 1.834e+2
0.317, -6.266e-6, 6.708e-4, 1.836e+2
0.318, -6.211e-6, 6.696e-4, 1.838e+2
0.319, -6.156e-6, 6.684e-4, 1.840e+2
0.320, -6.103e-6, 6.671e-4, 1.842e+2
0.321, -6.049e-6, 6.659e-4, 1.844e+2
0.322, -5.996e-6, 6.647e-4, 1.846e+2
0.323, -5.944e-6, 6.636e-4, 1.848e+2
0.324, -5.892e-6, 6.624e-4, 1.850e+2
0.325, -5.842e-6, 6.612e-4, 1.852e+2
0.326, -5.793e-6, 6.600e-4, 1.854e+2
0.327, -5.744e-6, 6.589e-4, 1.856e+2
0.328, -5.695e-6, 6.578e-4, 1.858e+2
0.329, -5.646e-6, 6.566e-4, 1.860e+2
0.330, -5.599e-6, 6.555e-4, 1.862e+2
0.331, -5.552e-6, 6.544e-4, 1.864e+2
0.332, -5.506e-6, 6.533e-4, 1.866e+2
0.333, -5.460e-6, 6.522e-4, 1.868e+2
0.334, -5.415e-6, 6.511e-4, 1.870e+2
0.335, -5.371e-6, 6.500e-4, 1.872e+2
0.336, -5.327e-6, 6.490e-4, 1.874e+2
0.337, -5.284e-6, 6.479e-4, 1.876e+2
0.338, -5.241e-6, 6.469e-4, 1.878e+2
0.339, -5.199e-6, 6.458e-4, 1.880e+2
0.340, -5.158e-6, 6.448e-4, 1.882e+2
0.341, -5.117e-6, 6.438e-4, 1.884e+2
0.342, -5.077e-6, 6.428e-4, 1.886e+2
0.343, -5.037e-6, 6.418e-4, 1.888e+2
0.344, -4.997e-6, 6.408e-4, 1.890e+2
0.345, -4.959e-6, 6.398e-4, 1.892e+2
0.346, -4.921e-6, 6.388e-4, 1.894e+2
0.347, -4.883e-6, 6.378e-4, 1.896e+2
0.348, -4.846e-6, 6.368e-4, 1.898e+2
0.349, -4.810e-6, 6.359e-4, 1.900e+2
0.350, -4.774e-6, 6.349e-4, 1.902e+2
0.351, -4.738e-6, 6.340e-4, 1.904e+2
0.352, -4.703e-6, 6.330e-4, 1.906e+2
0.353, -4.669e-6, 6.321e-4, 1.908e+2
0.354, -4.634e-6, 6.312e-4, 1.910e+2
0.355, -4.601e-6, 6.303e-4, 1.912e+2
0.356, -4.567e-6, 6.293e-4, 1.914e+2
0.357, -4.535e-6, 6.284e-4, 1.916e+2
0.358, -4.502e-6, 6.275e-4, 1.918e+2
0.359, -4.470e-6, 6.266e-4, 1.920e+2
0.360, -4.439e-6, 6.258e-4, 1.922e+2
0.361, -4.408e-6, 6.249e-4, 1.924e+2
0.362, -4.378e-6, 6.240e-4, 1.926e+2
0.363, -4.348e-6, 6.231e-4, 1.928e+2
0.364, -4.318e-6, 6.223e-4, 1.930e+2
0.365, -4.289e-6, 6.214e-4, 1.932e+2
0.366, -4.260e-6, 6.206e-4, 1.934e+2
0.367, -4.231e-6, 6.197e-4, 1.936e+2
0.368, -4.203e-6, 6.189e-4, 1.938e+2
0.369, -4.175e-6, 6.180e-4, 1.940e+2
0.370, -4.148e-6, 6.172e-4, 1.942e+2
0.371, -4.121e-6, 6.164e-4, 1.944e+2
0.372, -4.095e-6, 6.156e-4, 1.946e+2
0.373, -4.068e-6, 6.147e-4, 1.948e+2
0.374, -4.042e-6, 6.139e-4, 1.950e+2
0.375, -4.017e-6, 6.131e-4, 1.952e+2
0.376, -3.991e-6, 6.123e-4, 1.954e+2
0.377, -3.966e-6, 6.115e-4, 1.956e+2
0.378, -3.942e-6, 6.108e-4, 1.958e+2
0.379, -3.917e-6, 6.100e-4, 1.960e+2
0.380, -3.893e-6, 6.092e-4, 1.962e+2
0.381, -3.870e-6, 6.084e-4, 1.964e+2
0.382, -3.846e-6, 6.076e-4, 1.966e+2
0.383, -3.823e-6, 6.069e-4, 1.968e+2
0.384, -3.801e-6, 6.061e-4, 1.970e+2
0.385, -3.778e-6, 6.054e-4, 1.972e+2
0.386, -3.756e-6, 6.046e-4, 1.974e+2
0.387, -3.734e-6, 6.039e-4, 1.976e+2
0.388, -3.712e-6, 6.031e-4, 1.978e+2
0.389, -3.691e-6, 6.024e-4, 1.980e+2
0.390, -3.670e-6, 6.017e-4, 1.982e+2
0.391, -3.650e-6, 6.009e-4, 1.984e+2
0.392, -3.629e-6, 6.002e-4, 1.986e+2
0.393, -3.609e-6, 5.995e-4, 1.988e+2
0.394, -3.589e-6, 5.988e-4, 1.990e+2
0.395, -3.569e-6, 5.980e-4, 1.992e+2
0.396, -3.550e-6, 5.973e-4, 1.994e+2
0.397, -3.530e-6, 5.966e-4, 1.996e+2
0.398, -3.511e-6, 5.959e-4, 1.998e+2
0.399, -3.493e-6, 5.952e-4, 2.000e+2
0.400, -3.474e-6, 5.945e-4, 2.002e+2
0.401, -3.456e-6, 5.938e-4, 2.004e+2
0.402, -3.438e-6, 5.932e-4, 2.006e+2
0.403, -3.420e-6, 5.925e-4, 2.008e+2
0.404, -3.402e-6, 5.918e-4, 2.010e+2
0.405, -3.385e-6, 5.911e-4, 2.012e+2
0.406, -3.367e-6, 5.904e-4, 2.014e+2
0.407, -3.350e-6, 5.898e-4, 2.016e+2
0.408, -3.333e-6, 5.891e-4, 2.018e+2
0.409, -3.317e-6, 5.884e-4, 2.020e+2
0.410, -3.299e-6, 5.878e-4, 2.022e+2
0.411, -3.284e-6, 5.871e-4, 2.024e+2
0.412, -3.268e-6, 5.865e-4, 2.026e+2
0.413, -3.252e-6, 5.858e-4, 2.028e+2
0.414, -3.237e-6, 5.852e-4, 2.030e+2
0.415, -3.221e-6, 5.845e-4, 2.032e+2
0.416, -3.206e-6, 5.839e-4, 2.034e+2
0.417, -3.191e-6, 5.832e-4, 2.036e+2
0.418, -3.176e-6, 5.826e-4, 2.038e+2
0.419, -3.162e-6, 5.820e-4, 2.040e+2
0.420, -3.147e-6, 5.813e-4, 2.042e+2
0.421, -3.132e-6, 5.807e-4, 2.044e+2
0.422, -3.118e-6, 5.801e-4, 2.046e+2
0.423, -3.104e-6, 5.795e-4, 2.048e+2
0.424, -3.090e-6, 5.789e-4, 2.050e+2
0.425, -3.077e-6, 5.782e-4, 2.052e+2
0.426, -3.063e-6, 5.776e-4, 2.054e+2
0.427, -3.050e-6, 5.770e-4, 2.056e+2
0.428, -3.037e-6, 5.764e-4, 2.058e+2
0.429, -3.024e-6, 5.758e-4, 2.060e+2
0.430, -3.011e-6, 5.752e-4, 2.062e+2
0.431, -2.998e-6, 5.746e-4, 2.064e+2
0.432, -2.985e-6, 5.740e-4, 2.066e+2
0.433, -2.973e-6, 5.734e-4, 2.068e+2
0.434, -2.960e-6, 5.728e-4, 2.070e+2
0.435, -2.948e-6, 5.722e-4, 2.072e+2
0.436, -2.936e-6, 5.716e-4, 2.074e+2
0.437, -2.924e-6, 5.711e-4, 2.076e+2
0.438, -2.913e-6, 5.705e-4, 2.078e+2
0.439, -2.901e-6, 5.699e-4, 2.080e+2
0.440, -2.890e-6, 5.693e-4, 2.082e+2
0.441, -2.878e-6, 5.687e-4, 2.084e+2
0.442, -2.867e-6, 5.682e-4, 2.086e+2
0.443, -2.856e-6, 5.676e-4, 2.088e+2
0.444, -2.845e-6, 5.670e-4, 2.090e+2
0.445, -2.834e-6, 5.665e-4, 2.092e+2
0.446, -2.823e-6, 5.659e-4, 2.094e+2
0.447, -2.812e-6, 5.653e-4, 2.096e+2
0.448, -2.802e-6, 5.648e-4, 2.098e+2
0.449, -2.792e-6, 5.642e-4, 2.100e+2
0.450, -2.781e-6, 5.637e-4, 2.102e+2
0.451, -2.771e-6, 5.631e-4, 2.104e+2
0.452, -2.761e-6, 5.626e-4, 2.106e+2
0.453, -2.751e-6, 5.620e-4, 2.108e+2
0.454, -2.741e-6, 5.615e-4, 2.110e+2
0.455, -2.732e-6, 5.609e-4, 2.112e+2
0.456, -2.722e-6, 5.604e-4, 2.114e+2
0.457, -2.713e-6, 5.598e-4, 2.116e+2
0.458, -2.703e-6, 5.593e-4, 2.118e+2
0.459, -2.695e-6, 5.587e-4, 2.120e+2
0.460, -2.685e-6, 5.582e-4, 2.122e+2
0.461, -2.675e-6, 5.577e-4, 2.124e+2
0.462, -2.667e-6, 5.571e-4, 2.126e+2
0.463, -2.658e-6, 5.566e-4, 2.128e+2
0.464, -2.650e-6, 5.561e-4, 2.130e+2
0.465, -2.641e-6, 5.556e-4, 2.132e+2
0.466, -2.632e-6, 5.550e-4, 2.134e+2
0.467, -2.624e-6, 5.545e-4, 2.136e+2
0.468, -2.615e-6, 5.540e-4, 2.138e+2
0.469, -2.607e-6, 5.535e-4, 2.140e+2
0.470, -2.599e-6, 5.529e-4, 2.142e+2
0.471, -2.591e-6, 5.524e-4, 2.144e+2
0.472, -2.583e-6, 5.519e-4, 2.146e+2
0.473, -2.575e-6, 5.514e-4, 2.148e+2
0.474, -2.567e-6, 5.509e-4, 2.150e+2
0.475, -2.559e-6, 5.504e-4, 2.152e+2
0.476, -2.552e-6, 5.499e-4, 2.154e+2
0.477, -2.544e-6, 5.493e-4, 2.156e+2
0.478, -2.537e-6, 5.488e-4, 2.158e+2
0.479, -2.530e-6, 5.483e-4, 2.160e+2
0.480, -2.523e-6, 5.478e-4, 2.162e+2
0.481, -2.515e-6, 5.473e-4, 2.164e+2
0.482, -2.508e-6, 5.468e-4, 2.166e+2
0.483, -2.501e-6, 5.463e-4, 2.168e+2
0.484, -2.494e-6, 5.458e-4, 2.170e+2
0.485, -2.487e-6, 5.453e-4, 2.172e+2
0.486, -2.480e-6, 5.448e-4, 2.174e+2
0.487, -2.474e-6, 5.443e-4, 2.176e+2
0.488, -2.467e-6, 5.438e-4, 2.178e+2
0.489, -2.460e-6, 5.433e-4, 2.180e+2
0.490, -2.454e-6, 5.429e-4, 2.182e+2
0.491, -2.448e-6, 5.424e-4, 2.184e+2
0.492, -2.441e-6, 5.419e-4, 2.186e+2
0.493, -2.435e-6, 5.414e-4, 2.188e+2
0.494, -2.429e-6, 5.409e-4, 2.190e+2
0.495, -2.423e-6, 5.404e-4, 2.192e+2
0.496, -2.417e-6, 5.399e-4, 2.194e+2
0.497, -2.411e-6, 5.395e-4, 2.196e+2
0.498, -2.405e-6, 5.390e-4, 2.198e+2
0.499, -2.400e-6, 5.385e-4, 2.200e+2
0.500, -2.394e-6, 5.380e-4, 2.202e+2
0.501, -2.388e-6, 5.375e-4, 2.204e+2
0.502, -2.382e-6, 5.371e-4, 2.206e+2
0.503, -2.377e-6, 5.366e-4, 2.208e+2
0.504, -2.371e-6, 5.361e-4, 2.210e+2
0.505, -2.366e-6, 5.356e-4, 2.212e+2
0.506, -2.361e-6, 5.352e-4, 2.214e+2
0.507, -2.356e-6, 5.347e-4, 2.216e+2
0.508, -2.350e-6, 5.342e-4, 2.218e+2
0.509, -2.345e-6, 5.338e-4, 2.220e+2
0.510, -2.340e-6, 5.333e-4, 2.222e+2
0.511, -2.335e-6, 5.328e-4, 2.224e+2
0.512, -2.331e-6, 5.324e-4, 2.226e+2
0.513, -2.326e-6, 5.319e-4, 2.228e+2
0.514, -2.321e-6, 5.314e-4, 2.230e+2
0.515, -2.316e-6, 5.310e-4, 2.232e+2
0.516, -2.312e-6, 5.305e-4, 2.234e+2
0.517, -2.307e-6, 5.300e-4, 2.236e+2
0.518, -2.303e-6, 5.296e-4, 2.238e+2
0.519, -2.298e-6, 5.291e-4, 2.240e+2
0.520, -2.293e-6, 5.287e-4, 2.242e+2
0.521, -2.289e-6, 5.282e-4, 2.244e+2
0.522, -2.285e-6, 5.277e-4, 2.246e+2
0.523, -2.281e-6, 5.273e-4, 2.248e+2
0.524, -2.277e-6, 5.268e-4, 2.250e+2
0.525, -2.273e-6, 5.264e-4, 2.252e+2
0.526, -2.268e-6, 5.259e-4, 2.254e+2
0.527, -2.265e-6, 5.255e-4, 2.256e+2
0.528, -2.261e-6, 5.250e-4, 2.258e+2
0.529, -2.258e-6, 5.246e-4, 2.260e+2
0.530, -2.253e-6, 5.241e-4, 2.262e+2
0.531, -2.250e-6, 5.237e-4, 2.264e+2
0.532, -2.246e-6, 5.232e-4, 2.266e+2
0.533, -2.242e-6, 5.228e-4, 2.268e+2
0.534, -2.239e-6, 5.223e-4, 2.270e+2
0.535, -2.235e-6, 5.219e-4, 2.272e+2
0.536, -2.232e-6, 5.214e-4, 2.274e+2
0.537, -2.228e-6, 5.210e-4, 2.276e+2
0.538, -2.225e-6, 5.205e-4, 2.278e+2
0.539, -2.221e-6, 5.201e-4, 2.280e+2
0.540, -2.218e-6, 5.197e-4, 2.282e+2
0.541, -2.215e-6, 5.192e-4, 2.284e+2
0.542, -2.212e-6, 5.188e-4, 2.286e+2
0.543, -2.209e-6, 5.183e-4, 2.288e+2
0.544, -2.206e-6, 5.179e-4, 2.290e+2
0.545, -2.203e-6, 5.174e-4, 2.292e+2
0.546, -2.200e-6, 5.170e-4, 2.294e+2
0.547, -2.197e-6, 5.166e-4, 2.296e+2
0.548, -2.194e-6, 5.161e-4, 2.298e+2
0.549, -2.192e-6, 5.157e-4, 2.300e+2
0.550, -2.189e-6, 5.152e-4, 2.302e+2
0.551, -2.187e-6, 5.148e-4, 2.304e+2
0.552, -2.184e-6, 5.144e-4, 2.306e+2
0.553, -2.181e-6, 5.139e-4, 2.308e+2
0.554, -2.179e-6, 5.135e-4, 2.310e+2
0.555, -2.176e-6, 5.131e-4, 2.312e+2
0.556, -2.174e-6, 5.126e-4, 2.314e+2
0.557, -2.171e-6, 5.122e-4, 2.316e+2
0.558, -2.169e-6, 5.118e-4, 2.318e+2
0.559, -2.167e-6, 5.113e-4, 2.320e+2
0.560, -2.165e-6, 5.109e-4, 2.322e+2
0.561, -2.162e-6, 5.105e-4, 2.324e+2
0.562, -2.160e-6, 5.100e-4, 2.326e+2
0.563, -2.158e-6, 5.096e-4, 2.328e+2
0.564, -2.156e-6, 5.092e-4, 2.330e+2
0.565, -2.154e-6, 5.087e-4, 2.332e+2
0.566, -2.152e-6, 5.083e-4, 2.334e+2
0.567, -2.150e-6, 5.079e-4, 2.336e+2
0.568, -2.148e-6, 5.074e-4, 2.338e+2
0.569, -2.146e-6, 5.070e-4, 2.340e+2
0.570, -2.145e-6, 5.066e-4, 2.342e+2
0.571, -2.143e-6, 5.062e-4, 2.344e+2
0.572, -2.142e-6, 5.057e-4, 2.346e+2
0.573, -2.140e-6, 5.053e-4, 2.348e+2
0.574, -2.138e-6, 5.049e-4, 2.350e+2
0.575, -2.137e-6, 5.045e-4, 2.352e+2
0.576, -2.136e-6, 5.040e-4, 2.354e+2
0.577, -2.134e-6, 5.036e-4, 2.356e+2
0.578, -2.133e-6, 5.032e-4, 2.358e+2
0.579, -2.131e-6, 5.027e-4, 2.360e+2
0.580, -2.130e-6, 5.023e-4, 2.362e+2
0.581, -2.129e-6, 5.019e-4, 2.364e+2
0.582, -2.127e-6, 5.015e-4, 2.366e+2
0.583, -2.126e-6, 5.010e-4, 2.368e+2
0.584, -2.125e-6, 5.006e-4, 2.370e+2
0.585, -2.124e-6, 5.002e-4, 2.372e+2
0.586, -2.122e-6, 4.998e-4, 2.374e+2
0.587, -2.122e-6, 4.993e-4, 2.376e+2
0.588, -2.120e-6, 4.989e-4, 2.378e+2
0.589, -2.120e-6, 4.985e-4, 2.380e+2
0.590, -2.122e-6, 4.981e-4, 2.382e+2
0.591, -2.122e-6, 4.976e-4, 2.384e+2
0.592, -2.121e-6, 4.972e-4, 2.386e+2
0.593, -2.120e-6, 4.968e-4, 2.388e+2
0.594, -2.119e-6, 4.964e-4, 2.390e+2
0.595, -2.118e-6, 4.960e-4, 2.392e+2
0.596, -2.118e-6, 4.955e-4, 2.394e+2
0.597, -2.117e-6, 4.951e-4, 2.396e+2
0.598, -2.116e-6, 4.947e-4, 2.398e+2
0.599, -2.116e-6, 4.943e-4, 2.400e+2
