May 18, 2026   15:35:36
Cyclic Voltammetry
File: empty
Data Source:  Experiment
Instrument Model:  CHI660D
Header: 
Note: 

Init E (V) = 0.6
High E (V) = 0.6
Low E (V) = 0
Init P/N = N
Scan Rate (V/s) = 0.05
Segment = 2
Sample Interval (V) = 0.001
Quiet Time (sec) = 2
Sensitivity (A/V) = 1e-5

Segment 1:

Segment 2:

Potential/V, Current/A, Charge/C, Time/s

Segment 1:
0.600, -2.034e-6, -4.068e-8, 2.000e-2
0.599, -1.880e-6, -7.829e-8, 4.000e-2
0.598, -1.803e-6, -1.143e-7, 6.000e-2
0.597, -1.751e-6, -1.493e-7, 8.000e-2
0.596, -1.705e-6, -1.834e-7, 1.000e-1
0.595, -1.661e-6, -2.167e-7, 1.200e-1
0.594, -1.621e-6, -2.491e-7, 1.400e-1
0.593, -1.583e-6, -2.808e-7, 1.600e-1
0.592, -1.546e-6, -3.117e-7, 1.800e-1
0.591, -1.511e-6, -3.419e-7, 2.000e-1
0.590, -1.478e-6, -3.715e-7, 2.200e-1
0.589, -1.446e-6, -4.004e-7, 2.400e-1
0.588, -1.413e-6, -4.286e-7, 2.600e-1
0.587, -1.382e-6, -4.563e-7, 2.800e-1
0.586, -1.353e-6, -4.833e-7, 3.000e-1
0.585, -1.323e-6, -5.098e-7, 3.200e-1
0.584, -1.294e-6, -5.357e-7, 3.400e-1
0.583, -1.266e-6, -5.610e-7, 3.600e-1
0.582, -1.239e-6, -5.858e-7, 3.800e-1
0.581, -1.213e-6, -6.100e-7, 4.000e-1
0.580, -1.187e-6, -6.338e-7, 4.200e-1
0.579, -1.163e-6, -6.570e-7, 4.400e-1
0.578, -1.137e-6, -6.798e-7, 4.600e-1
0.577, -1.114e-6, -7.020e-7, 4.800e-1
0.576, -1.089e-6, -7.238e-7, 5.000e-1
0.575, -1.067e-6, -7.452e-7, 5.200e-1
0.574, -1.045e-6, -7.661e-7, 5.400e-1
0.573, -1.022e-6, -7.865e-7, 5.600e-1
0.572, -1.000e-6, -8.065e-7, 5.800e-1
0.571, -9.802e-7, -8.261e-7, 6.000e-1
0.570, -9.584e-7, -8.453e-7, 6.200e-1
0.569, -9.379e-7, -8.640e-7, 6.400e-1
0.568, -9.185e-7, -8.824e-7, 6.600e-1
0.567, -8.987e-7, -9.004e-7, 6.800e-1
0.566, -8.794e-7, -9.180e-7, 7.000e-1
0.565, -8.609e-7, -9.352e-7, 7.200e-1
0.564, -8.422e-7, -9.520e-7, 7.400e-1
0.563, -8.269e-7, -9.686e-7, 7.600e-1
0.562, -8.069e-7, -9.847e-7, 7.800e-1
0.561, -7.896e-7, -1.001e-6, 8.000e-1
0.560, -7.724e-7, -1.016e-6, 8.200e-1
0.559, -7.547e-7, -1.031e-6, 8.400e-1
0.558, -7.399e-7, -1.046e-6, 8.600e-1
0.557, -7.230e-7, -1.060e-6, 8.800e-1
0.556, -7.066e-7, -1.074e-6, 9.000e-1
0.555, -6.911e-7, -1.088e-6, 9.200e-1
0.554, -6.752e-7, -1.102e-6, 9.400e-1
0.553, -6.604e-7, -1.115e-6, 9.600e-1
0.552, -6.460e-7, -1.128e-6, 9.800e-1
0.551, -6.308e-7, -1.141e-6, 1.000e+0
0.550, -6.157e-7, -1.153e-6, 1.020e+0
0.549, -6.023e-7, -1.165e-6, 1.040e+0
0.548, -5.885e-7, -1.177e-6, 1.060e+0
0.547, -5.749e-7, -1.188e-6, 1.080e+0
0.546, -5.616e-7, -1.199e-6, 1.100e+0
0.545, -5.493e-7, -1.210e-6, 1.120e+0
0.544, -5.357e-7, -1.221e-6, 1.140e+0
0.543, -5.222e-7, -1.232e-6, 1.160e+0
0.542, -5.098e-7, -1.242e-6, 1.180e+0
0.541, -4.983e-7, -1.252e-6, 1.200e+0
0.540, -4.859e-7, -1.261e-6, 1.220e+0
0.539, -4.740e-7, -1.271e-6, 1.240e+0
0.538, -4.613e-7, -1.280e-6, 1.260e+0
0.537, -4.504e-7, -1.289e-6, 1.280e+0
0.536, -4.388e-7, -1.298e-6, 1.300e+0
0.535, -4.269e-7, -1.306e-6, 1.320e+0
0.534, -4.173e-7, -1.315e-6, 1.340e+0
0.533, -4.051e-7, -1.323e-6, 1.360e+0
0.532, -3.950e-7, -1.331e-6, 1.380e+0
0.531, -3.838e-7, -1.338e-6, 1.400e+0
0.530, -3.739e-7, -1.346e-6, 1.420e+0
0.529, -3.624e-7, -1.353e-6, 1.440e+0
0.528, -3.534e-7, -1.360e-6, 1.460e+0
0.527, -3.435e-7, -1.367e-6, 1.480e+0
0.526, -3.334e-7, -1.374e-6, 1.500e+0
0.525, -3.225e-7, -1.380e-6, 1.520e+0
0.524, -3.138e-7, -1.387e-6, 1.540e+0
0.523, -3.044e-7, -1.393e-6, 1.560e+0
0.522, -2.952e-7, -1.399e-6, 1.580e+0
0.521, -2.856e-7, -1.404e-6, 1.600e+0
0.520, -2.773e-7, -1.410e-6, 1.620e+0
0.519, -2.687e-7, -1.415e-6, 1.640e+0
0.518, -2.585e-7, -1.420e-6, 1.660e+0
0.517, -2.497e-7, -1.425e-6, 1.680e+0
0.516, -2.415e-7, -1.430e-6, 1.700e+0
0.515, -2.339e-7, -1.435e-6, 1.720e+0
0.514, -2.249e-7, -1.439e-6, 1.740e+0
0.513, -2.167e-7, -1.444e-6, 1.760e+0
0.512, -2.074e-7, -1.448e-6, 1.780e+0
0.511, -2.005e-7, -1.452e-6, 1.800e+0
0.510, -1.932e-7, -1.456e-6, 1.820e+0
0.509, -1.853e-7, -1.459e-6, 1.840e+0
0.508, -1.774e-7, -1.463e-6, 1.860e+0
0.507, -1.701e-7, -1.466e-6, 1.880e+0
0.506, -1.613e-7, -1.470e-6, 1.900e+0
0.505, -1.549e-7, -1.473e-6, 1.920e+0
0.504, -1.478e-7, -1.476e-6, 1.940e+0
0.503, -1.405e-7, -1.478e-6, 1.960e+0
0.502, -1.328e-7, -1.481e-6, 1.980e+0
0.501, -1.259e-7, -1.484e-6, 2.000e+0
0.500, -1.194e-7, -1.486e-6, 2.020e+0
0.499, -1.119e-7, -1.488e-6, 2.040e+0
0.498, -1.043e-7, -1.490e-6, 2.060e+0
0.497, -9.844e-8, -1.492e-6, 2.080e+0
0.496, -9.223e-8, -1.494e-6, 2.100e+0
0.495, -8.476e-8, -1.496e-6, 2.120e+0
0.494, -7.910e-8, -1.497e-6, 2.140e+0
0.493, -7.168e-8, -1.499e-6, 2.160e+0
0.492, -6.546e-8, -1.500e-6, 2.180e+0
0.491, -6.003e-8, -1.501e-6, 2.200e+0
0.490, -5.360e-8, -1.502e-6, 2.220e+0
0.489, -4.694e-8, -1.503e-6, 2.240e+0
0.488, -4.130e-8, -1.504e-6, 2.260e+0
0.487, -3.567e-8, -1.505e-6, 2.280e+0
0.486, -3.026e-8, -1.505e-6, 2.300e+0
0.485, -2.372e-8, -1.506e-6, 2.320e+0
0.484, -1.710e-8, -1.506e-6, 2.340e+0
0.483, -1.259e-8, -1.507e-6, 2.360e+0
0.482, -6.965e-9, -1.507e-6, 2.380e+0
0.481, -9.802e-10, -1.507e-6, 2.400e+0
0.480, 4.565e-9, -1.507e-6, 2.420e+0
0.479, 1.046e-8, -1.506e-6, 2.440e+0
0.478, 1.548e-8, -1.506e-6, 2.460e+0
0.477, 2.222e-8, -1.506e-6, 2.480e+0
0.476, 2.664e-8, -1.505e-6, 2.500e+0
0.475, 3.168e-8, -1.504e-6, 2.520e+0
0.474, 3.657e-8, -1.504e-6, 2.540e+0
0.473, 4.209e-8, -1.503e-6, 2.560e+0
0.472, 4.780e-8, -1.502e-6, 2.580e+0
0.471, 5.250e-8, -1.501e-6, 2.600e+0
0.470, 5.746e-8, -1.500e-6, 2.620e+0
0.469, 6.190e-8, -1.499e-6, 2.640e+0
0.468, 6.844e-8, -1.497e-6, 2.660e+0
0.467, 7.271e-8, -1.496e-6, 2.680e+0
0.466, 7.655e-8, -1.494e-6, 2.700e+0
0.465, 8.230e-8, -1.493e-6, 2.720e+0
0.464, 8.597e-8, -1.491e-6, 2.740e+0
0.463, 9.084e-8, -1.489e-6, 2.760e+0
0.462, 9.567e-8, -1.487e-6, 2.780e+0
0.461, 9.815e-8, -1.485e-6, 2.800e+0
0.460, 1.030e-7, -1.483e-6, 2.820e+0
0.459, 1.092e-7, -1.481e-6, 2.840e+0
0.458, 1.134e-7, -1.479e-6, 2.860e+0
0.457, 1.189e-7, -1.476e-6, 2.880e+0
0.456, 1.219e-7, -1.474e-6, 2.900e+0
0.455, 1.275e-7, -1.471e-6, 2.920e+0
0.454, 1.313e-7, -1.469e-6, 2.940e+0
0.453, 1.359e-7, -1.466e-6, 2.960e+0
0.452, 1.405e-7, -1.463e-6, 2.980e+0
0.451, 1.446e-7, -1.460e-6, 3.000e+0
0.450, 1.486e-7, -1.457e-6, 3.020e+0
0.449, 1.524e-7, -1.454e-6, 3.040e+0
0.448, 1.566e-7, -1.451e-6, 3.060e+0
0.447, 1.605e-7, -1.448e-6, 3.080e+0
0.446, 1.651e-7, -1.445e-6, 3.100e+0
0.445, 1.686e-7, -1.441e-6, 3.120e+0
0.444, 1.731e-7, -1.438e-6, 3.140e+0
0.443, 1.766e-7, -1.434e-6, 3.160e+0
0.442, 1.811e-7, -1.431e-6, 3.180e+0
0.441, 1.850e-7, -1.427e-6, 3.200e+0
0.440, 1.882e-7, -1.423e-6, 3.220e+0
0.439, 1.915e-7, -1.419e-6, 3.240e+0
0.438, 1.949e-7, -1.415e-6, 3.260e+0
0.437, 1.990e-7, -1.411e-6, 3.280e+0
0.436, 2.035e-7, -1.407e-6, 3.300e+0
0.435, 2.054e-7, -1.403e-6, 3.320e+0
0.434, 2.100e-7, -1.399e-6, 3.340e+0
0.433, 2.138e-7, -1.395e-6, 3.360e+0
0.432, 2.167e-7, -1.390e-6, 3.380e+0
0.431, 2.208e-7, -1.386e-6, 3.400e+0
0.430, 2.241e-7, -1.381e-6, 3.420e+0
0.429, 2.288e-7, -1.377e-6, 3.440e+0
0.428, 2.314e-7, -1.372e-6, 3.460e+0
0.427, 2.348e-7, -1.368e-6, 3.480e+0
0.426, 2.387e-7, -1.363e-6, 3.500e+0
0.425, 2.418e-7, -1.358e-6, 3.520e+0
0.424, 2.456e-7, -1.353e-6, 3.540e+0
0.423, 2.485e-7, -1.348e-6, 3.560e+0
0.422, 2.526e-7, -1.343e-6, 3.580e+0
0.421, 2.557e-7, -1.338e-6, 3.600e+0
0.420, 2.598e-7, -1.333e-6, 3.620e+0
0.419, 2.618e-7, -1.327e-6, 3.640e+0
0.418, 2.656e-7, -1.322e-6, 3.660e+0
0.417, 2.689e-7, -1.317e-6, 3.680e+0
0.416, 2.724e-7, -1.311e-6, 3.700e+0
0.415, 2.753e-7, -1.306e-6, 3.720e+0
0.414, 2.776e-7, -1.300e-6, 3.740e+0
0.413, 2.815e-7, -1.295e-6, 3.760e+0
0.412, 2.845e-7, -1.289e-6, 3.780e+0
0.411, 2.880e-7, -1.283e-6, 3.800e+0
0.410, 2.868e-7, -1.277e-6, 3.820e+0
0.409, 2.850e-7, -1.272e-6, 3.840e+0
0.408, 2.944e-7, -1.266e-6, 3.860e+0
0.407, 2.995e-7, -1.260e-6, 3.880e+0
0.406, 3.019e-7, -1.254e-6, 3.900e+0
0.405, 3.057e-7, -1.248e-6, 3.920e+0
0.404, 3.094e-7, -1.242e-6, 3.940e+0
0.403, 3.129e-7, -1.235e-6, 3.960e+0
0.402, 3.157e-7, -1.229e-6, 3.980e+0
0.401, 3.176e-7, -1.223e-6, 4.000e+0
0.400, 3.208e-7, -1.216e-6, 4.020e+0
0.399, 3.255e-7, -1.210e-6, 4.040e+0
0.398, 3.266e-7, -1.203e-6, 4.060e+0
0.397, 3.309e-7, -1.197e-6, 4.080e+0
0.396, 3.331e-7, -1.190e-6, 4.100e+0
0.395, 3.350e-7, -1.183e-6, 4.120e+0
0.394, 3.388e-7, -1.176e-6, 4.140e+0
0.393, 3.418e-7, -1.170e-6, 4.160e+0
0.392, 3.442e-7, -1.163e-6, 4.180e+0
0.391, 3.476e-7, -1.156e-6, 4.200e+0
0.390, 3.509e-7, -1.149e-6, 4.220e+0
0.389, 3.531e-7, -1.142e-6, 4.240e+0
0.388, 3.560e-7, -1.135e-6, 4.260e+0
0.387, 3.586e-7, -1.127e-6, 4.280e+0
0.386, 3.629e-7, -1.120e-6, 4.300e+0
0.385, 3.643e-7, -1.113e-6, 4.320e+0
0.384, 3.670e-7, -1.105e-6, 4.340e+0
0.383, 3.701e-7, -1.098e-6, 4.360e+0
0.382, 3.724e-7, -1.091e-6, 4.380e+0
0.381, 3.763e-7, -1.083e-6, 4.400e+0
0.380, 3.792e-7, -1.076e-6, 4.420e+0
0.379, 3.808e-7, -1.068e-6, 4.440e+0
0.378, 3.847e-7, -1.060e-6, 4.460e+0
0.377, 3.869e-7, -1.052e-6, 4.480e+0
0.376, 3.899e-7, -1.045e-6, 4.500e+0
0.375, 3.922e-7, -1.037e-6, 4.520e+0
0.374, 3.947e-7, -1.029e-6, 4.540e+0
0.373, 3.980e-7, -1.021e-6, 4.560e+0
0.372, 4.006e-7, -1.013e-6, 4.580e+0
0.371, 4.027e-7, -1.005e-6, 4.600e+0
0.370, 4.060e-7, -9.968e-7, 4.620e+0
0.369, 4.096e-7, -9.886e-7, 4.640e+0
0.368, 4.118e-7, -9.804e-7, 4.660e+0
0.367, 4.142e-7, -9.721e-7, 4.680e+0
0.366, 4.161e-7, -9.638e-7, 4.700e+0
0.365, 4.195e-7, -9.554e-7, 4.720e+0
0.364, 4.233e-7, -9.469e-7, 4.740e+0
0.363, 4.248e-7, -9.384e-7, 4.760e+0
0.362, 4.272e-7, -9.299e-7, 4.780e+0
0.361, 4.304e-7, -9.213e-7, 4.800e+0
0.360, 4.322e-7, -9.126e-7, 4.820e+0
0.359, 4.355e-7, -9.039e-7, 4.840e+0
0.358, 4.351e-7, -8.952e-7, 4.860e+0
0.357, 4.399e-7, -8.864e-7, 4.880e+0
0.356, 4.439e-7, -8.775e-7, 4.900e+0
0.355, 4.469e-7, -8.686e-7, 4.920e+0
0.354, 4.491e-7, -8.596e-7, 4.940e+0
0.353, 4.518e-7, -8.506e-7, 4.960e+0
0.352, 4.552e-7, -8.415e-7, 4.980e+0
0.351, 4.572e-7, -8.323e-7, 5.000e+0
0.350, 4.594e-7, -8.231e-7, 5.020e+0
0.349, 4.629e-7, -8.139e-7, 5.040e+0
0.348, 4.661e-7, -8.046e-7, 5.060e+0
0.347, 4.675e-7, -7.952e-7, 5.080e+0
0.346, 4.719e-7, -7.858e-7, 5.100e+0
0.345, 4.747e-7, -7.763e-7, 5.120e+0
0.344, 4.759e-7, -7.668e-7, 5.140e+0
0.343, 4.788e-7, -7.572e-7, 5.160e+0
0.342, 4.818e-7, -7.475e-7, 5.180e+0
0.341, 4.849e-7, -7.378e-7, 5.200e+0
0.340, 4.873e-7, -7.281e-7, 5.220e+0
0.339, 4.906e-7, -7.183e-7, 5.240e+0
0.338, 4.933e-7, -7.084e-7, 5.260e+0
0.337, 4.960e-7, -6.985e-7, 5.280e+0
0.336, 4.987e-7, -6.885e-7, 5.300e+0
0.335, 5.012e-7, -6.785e-7, 5.320e+0
0.334, 5.045e-7, -6.684e-7, 5.340e+0
0.333, 5.058e-7, -6.583e-7, 5.360e+0
0.332, 5.096e-7, -6.481e-7, 5.380e+0
0.331, 5.122e-7, -6.379e-7, 5.400e+0
0.330, 5.160e-7, -6.275e-7, 5.420e+0
0.329, 5.182e-7, -6.172e-7, 5.440e+0
0.328, 5.204e-7, -6.068e-7, 5.460e+0
0.327, 5.241e-7, -5.963e-7, 5.480e+0
0.326, 5.274e-7, -5.857e-7, 5.500e+0
0.325, 5.295e-7, -5.751e-7, 5.520e+0
0.324, 5.321e-7, -5.645e-7, 5.540e+0
0.323, 5.344e-7, -5.538e-7, 5.560e+0
0.322, 5.374e-7, -5.431e-7, 5.580e+0
0.321, 5.402e-7, -5.323e-7, 5.600e+0
0.320, 5.443e-7, -5.214e-7, 5.620e+0
0.319, 5.470e-7, -5.104e-7, 5.640e+0
0.318, 5.491e-7, -4.995e-7, 5.660e+0
0.317, 5.529e-7, -4.884e-7, 5.680e+0
0.316, 5.563e-7, -4.773e-7, 5.700e+0
0.315, 5.585e-7, -4.661e-7, 5.720e+0
0.314, 5.616e-7, -4.549e-7, 5.740e+0
0.313, 5.645e-7, -4.436e-7, 5.760e+0
0.312, 5.672e-7, -4.322e-7, 5.780e+0
0.311, 5.701e-7, -4.208e-7, 5.800e+0
0.310, 5.734e-7, -4.094e-7, 5.820e+0
0.309, 5.764e-7, -3.978e-7, 5.840e+0
0.308, 5.788e-7, -3.863e-7, 5.860e+0
0.307, 5.825e-7, -3.746e-7, 5.880e+0
0.306, 5.858e-7, -3.629e-7, 5.900e+0
0.305, 5.888e-7, -3.511e-7, 5.920e+0
0.304, 5.916e-7, -3.393e-7, 5.940e+0
0.303, 5.947e-7, -3.274e-7, 5.960e+0
0.302, 5.971e-7, -3.155e-7, 5.980e+0
0.301, 6.012e-7, -3.034e-7, 6.000e+0
0.300, 6.044e-7, -2.913e-7, 6.020e+0
0.299, 6.068e-7, -2.792e-7, 6.040e+0
0.298, 6.102e-7, -2.670e-7, 6.060e+0
0.297, 6.136e-7, -2.547e-7, 6.080e+0
0.296, 6.161e-7, -2.424e-7, 6.100e+0
0.295, 6.204e-7, -2.300e-7, 6.120e+0
0.294, 6.233e-7, -2.175e-7, 6.140e+0
0.293, 6.261e-7, -2.050e-7, 6.160e+0
0.292, 6.296e-7, -1.924e-7, 6.180e+0
0.291, 6.327e-7, -1.798e-7, 6.200e+0
0.290, 6.364e-7, -1.670e-7, 6.220e+0
0.289, 6.398e-7, -1.542e-7, 6.240e+0
0.288, 6.431e-7, -1.414e-7, 6.260e+0
0.287, 6.469e-7, -1.284e-7, 6.280e+0
0.286, 6.497e-7, -1.155e-7, 6.300e+0
0.285, 6.532e-7, -1.024e-7, 6.320e+0
0.284, 6.574e-7, -8.924e-8, 6.340e+0
0.283, 6.604e-7, -7.603e-8, 6.360e+0
0.282, 6.640e-7, -6.275e-8, 6.380e+0
0.281, 6.660e-7, -4.943e-8, 6.400e+0
0.280, 6.705e-7, -3.602e-8, 6.420e+0
0.279, 6.744e-7, -2.253e-8, 6.440e+0
0.278, 6.765e-7, -9.000e-9, 6.460e+0
0.277, 6.802e-7, 4.603e-9, 6.480e+0
0.276, 6.853e-7, 1.831e-8, 6.500e+0
0.275, 6.886e-7, 3.208e-8, 6.520e+0
0.274, 6.923e-7, 4.593e-8, 6.540e+0
0.273, 6.952e-7, 5.983e-8, 6.560e+0
0.272, 6.992e-7, 7.381e-8, 6.580e+0
0.271, 7.042e-7, 8.790e-8, 6.600e+0
0.270, 7.072e-7, 1.020e-7, 6.620e+0
0.269, 7.108e-7, 1.163e-7, 6.640e+0
0.268, 7.142e-7, 1.305e-7, 6.660e+0
0.267, 7.181e-7, 1.449e-7, 6.680e+0
0.266, 7.227e-7, 1.594e-7, 6.700e+0
0.265, 7.265e-7, 1.739e-7, 6.720e+0
0.264, 7.288e-7, 1.885e-7, 6.740e+0
0.263, 7.336e-7, 2.031e-7, 6.760e+0
0.262, 7.379e-7, 2.179e-7, 6.780e+0
0.261, 7.419e-7, 2.327e-7, 6.800e+0
0.260, 7.463e-7, 2.477e-7, 6.820e+0
0.259, 7.490e-7, 2.626e-7, 6.840e+0
0.258, 7.547e-7, 2.777e-7, 6.860e+0
0.257, 7.583e-7, 2.929e-7, 6.880e+0
0.256, 7.595e-7, 3.081e-7, 6.900e+0
0.255, 7.645e-7, 3.234e-7, 6.920e+0
0.254, 7.698e-7, 3.388e-7, 6.940e+0
0.253, 7.736e-7, 3.542e-7, 6.960e+0
0.252, 7.787e-7, 3.698e-7, 6.980e+0
0.251, 7.826e-7, 3.855e-7, 7.000e+0
0.250, 7.871e-7, 4.012e-7, 7.020e+0
0.249, 7.920e-7, 4.171e-7, 7.040e+0
0.248, 7.949e-7, 4.330e-7, 7.060e+0
0.247, 8.014e-7, 4.490e-7, 7.080e+0
0.246, 8.056e-7, 4.651e-7, 7.100e+0
0.245, 8.094e-7, 4.813e-7, 7.120e+0
0.244, 8.141e-7, 4.976e-7, 7.140e+0
0.243, 8.185e-7, 5.139e-7, 7.160e+0
0.242, 8.235e-7, 5.304e-7, 7.180e+0
0.241, 8.269e-7, 5.469e-7, 7.200e+0
0.240, 8.327e-7, 5.636e-7, 7.220e+0
0.239, 8.377e-7, 5.804e-7, 7.240e+0
0.238, 8.412e-7, 5.972e-7, 7.260e+0
0.237, 8.468e-7, 6.141e-7, 7.280e+0
0.236, 8.527e-7, 6.312e-7, 7.300e+0
0.235, 8.561e-7, 6.483e-7, 7.320e+0
0.234, 8.612e-7, 6.655e-7, 7.340e+0
0.233, 8.665e-7, 6.828e-7, 7.360e+0
0.232, 8.703e-7, 7.002e-7, 7.380e+0
0.231, 8.766e-7, 7.178e-7, 7.400e+0
0.230, 8.800e-7, 7.354e-7, 7.420e+0
0.229, 8.855e-7, 7.531e-7, 7.440e+0
0.228, 8.917e-7, 7.709e-7, 7.460e+0
0.227, 8.972e-7, 7.889e-7, 7.480e+0
0.226, 9.014e-7, 8.069e-7, 7.500e+0
0.225, 9.069e-7, 8.250e-7, 7.520e+0
0.224, 9.135e-7, 8.433e-7, 7.540e+0
0.223, 9.183e-7, 8.617e-7, 7.560e+0
0.222, 9.241e-7, 8.802e-7, 7.580e+0
0.221, 9.296e-7, 8.987e-7, 7.600e+0
0.220, 9.348e-7, 9.174e-7, 7.620e+0
0.219, 9.393e-7, 9.362e-7, 7.640e+0
0.218, 9.471e-7, 9.552e-7, 7.660e+0
0.217, 9.528e-7, 9.742e-7, 7.680e+0
0.216, 9.576e-7, 9.934e-7, 7.700e+0
0.215, 9.631e-7, 1.013e-6, 7.720e+0
0.214, 9.699e-7, 1.032e-6, 7.740e+0
0.213, 9.764e-7, 1.052e-6, 7.760e+0
0.212, 9.817e-7, 1.071e-6, 7.780e+0
0.211, 9.885e-7, 1.091e-6, 7.800e+0
0.210, 9.944e-7, 1.111e-6, 7.820e+0
0.209, 9.992e-7, 1.131e-6, 7.840e+0
0.208, 1.007e-6, 1.151e-6, 7.860e+0
0.207, 1.014e-6, 1.171e-6, 7.880e+0
0.206, 1.020e-6, 1.192e-6, 7.900e+0
0.205, 1.030e-6, 1.212e-6, 7.920e+0
0.204, 1.036e-6, 1.233e-6, 7.940e+0
0.203, 1.041e-6, 1.254e-6, 7.960e+0
0.202, 1.048e-6, 1.275e-6, 7.980e+0
0.201, 1.055e-6, 1.296e-6, 8.000e+0
0.200, 1.061e-6, 1.317e-6, 8.020e+0
0.199, 1.068e-6, 1.338e-6, 8.040e+0
0.198, 1.075e-6, 1.360e-6, 8.060e+0
0.197, 1.083e-6, 1.382e-6, 8.080e+0
0.196, 1.090e-6, 1.403e-6, 8.100e+0
0.195, 1.097e-6, 1.425e-6, 8.120e+0
0.194, 1.105e-6, 1.447e-6, 8.140e+0
0.193, 1.112e-6, 1.470e-6, 8.160e+0
0.192, 1.120e-6, 1.492e-6, 8.180e+0
0.191, 1.128e-6, 1.515e-6, 8.200e+0
0.190, 1.134e-6, 1.537e-6, 8.220e+0
0.189, 1.143e-6, 1.560e-6, 8.240e+0
0.188, 1.152e-6, 1.583e-6, 8.260e+0
0.187, 1.159e-6, 1.606e-6, 8.280e+0
0.186, 1.166e-6, 1.630e-6, 8.300e+0
0.185, 1.174e-6, 1.653e-6, 8.320e+0
0.184, 1.184e-6, 1.677e-6, 8.340e+0
0.183, 1.192e-6, 1.701e-6, 8.360e+0
0.182, 1.199e-6, 1.725e-6, 8.380e+0
0.181, 1.209e-6, 1.749e-6, 8.400e+0
0.180, 1.217e-6, 1.773e-6, 8.420e+0
0.179, 1.225e-6, 1.798e-6, 8.440e+0
0.178, 1.234e-6, 1.822e-6, 8.460e+0
0.177, 1.243e-6, 1.847e-6, 8.480e+0
0.176, 1.251e-6, 1.872e-6, 8.500e+0
0.175, 1.260e-6, 1.897e-6, 8.520e+0
0.174, 1.269e-6, 1.923e-6, 8.540e+0
0.173, 1.279e-6, 1.948e-6, 8.560e+0
0.172, 1.287e-6, 1.974e-6, 8.580e+0
0.171, 1.296e-6, 2.000e-6, 8.600e+0
0.170, 1.306e-6, 2.026e-6, 8.620e+0
0.169, 1.314e-6, 2.052e-6, 8.640e+0
0.168, 1.323e-6, 2.079e-6, 8.660e+0
0.167, 1.333e-6, 2.106e-6, 8.680e+0
0.166, 1.343e-6, 2.132e-6, 8.700e+0
0.165, 1.351e-6, 2.159e-6, 8.720e+0
0.164, 1.360e-6, 2.187e-6, 8.740e+0
0.163, 1.368e-6, 2.214e-6, 8.760e+0
0.162, 1.379e-6, 2.242e-6, 8.780e+0
0.161, 1.388e-6, 2.269e-6, 8.800e+0
0.160, 1.397e-6, 2.297e-6, 8.820e+0
0.159, 1.407e-6, 2.325e-6, 8.840e+0
0.158, 1.416e-6, 2.354e-6, 8.860e+0
0.157, 1.425e-6, 2.382e-6, 8.880e+0
0.156, 1.435e-6, 2.411e-6, 8.900e+0
0.155, 1.444e-6, 2.440e-6, 8.920e+0
0.154, 1.452e-6, 2.469e-6, 8.940e+0
0.153, 1.460e-6, 2.498e-6, 8.960e+0
0.152, 1.472e-6, 2.527e-6, 8.980e+0
0.151, 1.482e-6, 2.557e-6, 9.000e+0
0.150, 1.492e-6, 2.587e-6, 9.020e+0
0.149, 1.501e-6, 2.617e-6, 9.040e+0
0.148, 1.511e-6, 2.647e-6, 9.060e+0
0.147, 1.522e-6, 2.678e-6, 9.080e+0
0.146, 1.531e-6, 2.708e-6, 9.100e+0
0.145, 1.542e-6, 2.739e-6, 9.120e+0
0.144, 1.551e-6, 2.770e-6, 9.140e+0
0.143, 1.562e-6, 2.801e-6, 9.160e+0
0.142, 1.571e-6, 2.833e-6, 9.180e+0
0.141, 1.583e-6, 2.864e-6, 9.200e+0
0.140, 1.593e-6, 2.896e-6, 9.220e+0
0.139, 1.603e-6, 2.928e-6, 9.240e+0
0.138, 1.614e-6, 2.961e-6, 9.260e+0
0.137, 1.625e-6, 2.993e-6, 9.280e+0
0.136, 1.635e-6, 3.026e-6, 9.300e+0
0.135, 1.646e-6, 3.059e-6, 9.320e+0
0.134, 1.656e-6, 3.092e-6, 9.340e+0
0.133, 1.667e-6, 3.125e-6, 9.360e+0
0.132, 1.679e-6, 3.159e-6, 9.380e+0
0.131, 1.690e-6, 3.193e-6, 9.400e+0
0.130, 1.701e-6, 3.227e-6, 9.420e+0
0.129, 1.712e-6, 3.261e-6, 9.440e+0
0.128, 1.723e-6, 3.295e-6, 9.460e+0
0.127, 1.735e-6, 3.330e-6, 9.480e+0
0.126, 1.747e-6, 3.365e-6, 9.500e+0
0.125, 1.759e-6, 3.400e-6, 9.520e+0
0.124, 1.770e-6, 3.436e-6, 9.540e+0
0.123, 1.782e-6, 3.471e-6, 9.560e+0
0.122, 1.794e-6, 3.507e-6, 9.580e+0
0.121, 1.807e-6, 3.543e-6, 9.600e+0
0.120, 1.819e-6, 3.580e-6, 9.620e+0
0.119, 1.831e-6, 3.616e-6, 9.640e+0
0.118, 1.844e-6, 3.653e-6, 9.660e+0
0.117, 1.856e-6, 3.690e-6, 9.680e+0
0.116, 1.869e-6, 3.728e-6, 9.700e+0
0.115, 1.884e-6, 3.765e-6, 9.720e+0
0.114, 1.896e-6, 3.803e-6, 9.740e+0
0.113, 1.909e-6, 3.841e-6, 9.760e+0
0.112, 1.922e-6, 3.880e-6, 9.780e+0
0.111, 1.938e-6, 3.919e-6, 9.800e+0
0.110, 1.950e-6, 3.958e-6, 9.820e+0
0.109, 1.964e-6, 3.997e-6, 9.840e+0
0.108, 1.977e-6, 4.036e-6, 9.860e+0
0.107, 1.992e-6, 4.076e-6, 9.880e+0
0.106, 2.007e-6, 4.116e-6, 9.900e+0
0.105, 2.021e-6, 4.157e-6, 9.920e+0
0.104, 2.035e-6, 4.198e-6, 9.940e+0
0.103, 2.050e-6, 4.239e-6, 9.960e+0
0.102, 2.066e-6, 4.280e-6, 9.980e+0
0.101, 2.080e-6, 4.321e-6, 1.000e+1
0.100, 2.097e-6, 4.363e-6, 1.002e+1
0.099, 2.112e-6, 4.406e-6, 1.004e+1
0.098, 2.128e-6, 4.448e-6, 1.006e+1
0.097, 2.143e-6, 4.491e-6, 1.008e+1
0.096, 2.160e-6, 4.534e-6, 1.010e+1
0.095, 2.177e-6, 4.578e-6, 1.012e+1
0.094, 2.192e-6, 4.622e-6, 1.014e+1
0.093, 2.209e-6, 4.666e-6, 1.016e+1
0.092, 2.225e-6, 4.710e-6, 1.018e+1
0.091, 2.243e-6, 4.755e-6, 1.020e+1
0.090, 2.260e-6, 4.800e-6, 1.022e+1
0.089, 2.278e-6, 4.846e-6, 1.024e+1
0.088, 2.296e-6, 4.892e-6, 1.026e+1
0.087, 2.314e-6, 4.938e-6, 1.028e+1
0.086, 2.331e-6, 4.985e-6, 1.030e+1
0.085, 2.351e-6, 5.032e-6, 1.032e+1
0.084, 2.370e-6, 5.079e-6, 1.034e+1
0.083, 2.387e-6, 5.127e-6, 1.036e+1
0.082, 2.408e-6, 5.175e-6, 1.038e+1
0.081, 2.427e-6, 5.224e-6, 1.040e+1
0.080, 2.446e-6, 5.273e-6, 1.042e+1
0.079, 2.467e-6, 5.322e-6, 1.044e+1
0.078, 2.486e-6, 5.372e-6, 1.046e+1
0.077, 2.507e-6, 5.422e-6, 1.048e+1
0.076, 2.526e-6, 5.472e-6, 1.050e+1
0.075, 2.546e-6, 5.523e-6, 1.052e+1
0.074, 2.568e-6, 5.574e-6, 1.054e+1
0.073, 2.589e-6, 5.626e-6, 1.056e+1
0.072, 2.611e-6, 5.679e-6, 1.058e+1
0.071, 2.633e-6, 5.731e-6, 1.060e+1
0.070, 2.656e-6, 5.784e-6, 1.062e+1
0.069, 2.679e-6, 5.838e-6, 1.064e+1
0.068, 2.702e-6, 5.892e-6, 1.066e+1
0.067, 2.723e-6, 5.946e-6, 1.068e+1
0.066, 2.747e-6, 6.001e-6, 1.070e+1
0.065, 2.771e-6, 6.057e-6, 1.072e+1
0.064, 2.795e-6, 6.113e-6, 1.074e+1
0.063, 2.820e-6, 6.169e-6, 1.076e+1
0.062, 2.843e-6, 6.226e-6, 1.078e+1
0.061, 2.869e-6, 6.283e-6, 1.080e+1
0.060, 2.894e-6, 6.341e-6, 1.082e+1
0.059, 2.919e-6, 6.400e-6, 1.084e+1
0.058, 2.946e-6, 6.458e-6, 1.086e+1
0.057, 2.971e-6, 6.518e-6, 1.088e+1
0.056, 2.999e-6, 6.578e-6, 1.090e+1
0.055, 3.025e-6, 6.638e-6, 1.092e+1
0.054, 3.053e-6, 6.699e-6, 1.094e+1
0.053, 3.081e-6, 6.761e-6, 1.096e+1
0.052, 3.108e-6, 6.823e-6, 1.098e+1
0.051, 3.133e-6, 6.886e-6, 1.100e+1
0.050, 3.162e-6, 6.949e-6, 1.102e+1
0.049, 3.194e-6, 7.013e-6, 1.104e+1
0.048, 3.223e-6, 7.077e-6, 1.106e+1
0.047, 3.254e-6, 7.143e-6, 1.108e+1
0.046, 3.282e-6, 7.208e-6, 1.110e+1
0.045, 3.313e-6, 7.274e-6, 1.112e+1
0.044, 3.345e-6, 7.341e-6, 1.114e+1
0.043, 3.375e-6, 7.409e-6, 1.116e+1
0.042, 3.408e-6, 7.477e-6, 1.118e+1
0.041, 3.440e-6, 7.546e-6, 1.120e+1
0.040, 3.472e-6, 7.615e-6, 1.122e+1
0.039, 3.507e-6, 7.685e-6, 1.124e+1
0.038, 3.540e-6, 7.756e-6, 1.126e+1
0.037, 3.575e-6, 7.828e-6, 1.128e+1
0.036, 3.609e-6, 7.900e-6, 1.130e+1
0.035, 3.642e-6, 7.973e-6, 1.132e+1
0.034, 3.679e-6, 8.046e-6, 1.134e+1
0.033, 3.714e-6, 8.121e-6, 1.136e+1
0.032, 3.750e-6, 8.196e-6, 1.138e+1
0.031, 3.786e-6, 8.271e-6, 1.140e+1
0.030, 3.823e-6, 8.348e-6, 1.142e+1
0.029, 3.862e-6, 8.425e-6, 1.144e+1
0.028, 3.900e-6, 8.503e-6, 1.146e+1
0.027, 3.939e-6, 8.582e-6, 1.148e+1
0.026, 3.977e-6, 8.661e-6, 1.150e+1
0.025, 4.015e-6, 8.742e-6, 1.152e+1
0.024, 4.055e-6, 8.823e-6, 1.154e+1
0.023, 4.098e-6, 8.905e-6, 1.156e+1
0.022, 4.137e-6, 8.987e-6, 1.158e+1
0.021, 4.180e-6, 9.071e-6, 1.160e+1
0.020, 4.223e-6, 9.155e-6, 1.162e+1
0.019, 4.265e-6, 9.241e-6, 1.164e+1
0.018, 4.308e-6, 9.327e-6, 1.166e+1
0.017, 4.352e-6, 9.414e-6, 1.168e+1
0.016, 4.394e-6, 9.502e-6, 1.170e+1
0.015, 4.440e-6, 9.591e-6, 1.172e+1
0.014, 4.487e-6, 9.680e-6, 1.174e+1
0.013, 4.534e-6, 9.771e-6, 1.176e+1
0.012, 4.580e-6, 9.863e-6, 1.178e+1
0.011, 4.625e-6, 9.955e-6, 1.180e+1
0.010, 4.674e-6, 1.005e-5, 1.182e+1
0.009, 4.723e-6, 1.014e-5, 1.184e+1
0.008, 4.771e-6, 1.024e-5, 1.186e+1
0.007, 4.820e-6, 1.033e-5, 1.188e+1
0.006, 4.871e-6, 1.043e-5, 1.190e+1
0.005, 4.921e-6, 1.053e-5, 1.192e+1
0.004, 4.972e-6, 1.063e-5, 1.194e+1
0.003, 5.024e-6, 1.073e-5, 1.196e+1
0.002, 5.077e-6, 1.083e-5, 1.198e+1
0.001, 5.130e-6, 1.093e-5, 1.200e+1

Segment 2:
0.000, 5.092e-6, 1.104e-5, 1.202e+1
0.001, 4.803e-6, 1.113e-5, 1.204e+1
0.002, 4.616e-6, 1.123e-5, 1.206e+1
0.003, 4.473e-6, 1.131e-5, 1.208e+1
0.004, 4.343e-6, 1.140e-5, 1.210e+1
0.005, 4.223e-6, 1.149e-5, 1.212e+1
0.006, 4.107e-6, 1.157e-5, 1.214e+1
0.007, 4.001e-6, 1.165e-5, 1.216e+1
0.008, 3.897e-6, 1.173e-5, 1.218e+1
0.009, 3.797e-6, 1.180e-5, 1.220e+1
0.010, 3.703e-6, 1.188e-5, 1.222e+1
0.011, 3.611e-6, 1.195e-5, 1.224e+1
0.012, 3.525e-6, 1.202e-5, 1.226e+1
0.013, 3.440e-6, 1.209e-5, 1.228e+1
0.014, 3.357e-6, 1.215e-5, 1.230e+1
0.015, 3.279e-6, 1.222e-5, 1.232e+1
0.016, 3.202e-6, 1.228e-5, 1.234e+1
0.017, 3.127e-6, 1.235e-5, 1.236e+1
0.018, 3.055e-6, 1.241e-5, 1.238e+1
0.019, 2.985e-6, 1.247e-5, 1.240e+1
0.020, 2.917e-6, 1.253e-5, 1.242e+1
0.021, 2.853e-6, 1.258e-5, 1.244e+1
0.022, 2.787e-6, 1.264e-5, 1.246e+1
0.023, 2.726e-6, 1.269e-5, 1.248e+1
0.024, 2.665e-6, 1.275e-5, 1.250e+1
0.025, 2.605e-6, 1.280e-5, 1.252e+1
0.026, 2.549e-6, 1.285e-5, 1.254e+1
0.027, 2.493e-6, 1.290e-5, 1.256e+1
0.028, 2.438e-6, 1.295e-5, 1.258e+1
0.029, 2.385e-6, 1.300e-5, 1.260e+1
0.030, 2.332e-6, 1.304e-5, 1.262e+1
0.031, 2.282e-6, 1.309e-5, 1.264e+1
0.032, 2.231e-6, 1.313e-5, 1.266e+1
0.033, 2.182e-6, 1.318e-5, 1.268e+1
0.034, 2.136e-6, 1.322e-5, 1.270e+1
0.035, 2.090e-6, 1.326e-5, 1.272e+1
0.036, 2.044e-6, 1.330e-5, 1.274e+1
0.037, 2.000e-6, 1.334e-5, 1.276e+1
0.038, 1.955e-6, 1.338e-5, 1.278e+1
0.039, 1.914e-6, 1.342e-5, 1.280e+1
0.040, 1.873e-6, 1.346e-5, 1.282e+1
0.041, 1.832e-6, 1.349e-5, 1.284e+1
0.042, 1.793e-6, 1.353e-5, 1.286e+1
0.043, 1.753e-6, 1.356e-5, 1.288e+1
0.044, 1.716e-6, 1.360e-5, 1.290e+1
0.045, 1.678e-6, 1.363e-5, 1.292e+1
0.046, 1.643e-6, 1.366e-5, 1.294e+1
0.047, 1.608e-6, 1.370e-5, 1.296e+1
0.048, 1.571e-6, 1.373e-5, 1.298e+1
0.049, 1.537e-6, 1.376e-5, 1.300e+1
0.050, 1.505e-6, 1.379e-5, 1.302e+1
0.051, 1.473e-6, 1.382e-5, 1.304e+1
0.052, 1.441e-6, 1.385e-5, 1.306e+1
0.053, 1.408e-6, 1.388e-5, 1.308e+1
0.054, 1.377e-6, 1.390e-5, 1.310e+1
0.055, 1.346e-6, 1.393e-5, 1.312e+1
0.056, 1.318e-6, 1.396e-5, 1.314e+1
0.057, 1.288e-6, 1.398e-5, 1.316e+1
0.058, 1.258e-6, 1.401e-5, 1.318e+1
0.059, 1.230e-6, 1.403e-5, 1.320e+1
0.060, 1.203e-6, 1.406e-5, 1.322e+1
0.061, 1.175e-6, 1.408e-5, 1.324e+1
0.062, 1.149e-6, 1.410e-5, 1.326e+1
0.063, 1.122e-6, 1.413e-5, 1.328e+1
0.064, 1.096e-6, 1.415e-5, 1.330e+1
0.065, 1.071e-6, 1.417e-5, 1.332e+1
0.066, 1.047e-6, 1.419e-5, 1.334e+1
0.067, 1.022e-6, 1.421e-5, 1.336e+1
0.068, 9.978e-7, 1.423e-5, 1.338e+1
0.069, 9.751e-7, 1.425e-5, 1.340e+1
0.070, 9.512e-7, 1.427e-5, 1.342e+1
0.071, 9.281e-7, 1.429e-5, 1.344e+1
0.072, 9.065e-7, 1.430e-5, 1.346e+1
0.073, 8.843e-7, 1.432e-5, 1.348e+1
0.074, 8.626e-7, 1.434e-5, 1.350e+1
0.075, 8.412e-7, 1.436e-5, 1.352e+1
0.076, 8.196e-7, 1.437e-5, 1.354e+1
0.077, 8.011e-7, 1.439e-5, 1.356e+1
0.078, 7.798e-7, 1.440e-5, 1.358e+1
0.079, 7.593e-7, 1.442e-5, 1.360e+1
0.080, 7.391e-7, 1.443e-5, 1.362e+1
0.081, 7.204e-7, 1.445e-5, 1.364e+1
0.082, 7.024e-7, 1.446e-5, 1.366e+1
0.083, 6.828e-7, 1.448e-5, 1.368e+1
0.084, 6.643e-7, 1.449e-5, 1.370e+1
0.085, 6.472e-7, 1.450e-5, 1.372e+1
0.086, 6.279e-7, 1.452e-5, 1.374e+1
0.087, 6.120e-7, 1.453e-5, 1.376e+1
0.088, 5.949e-7, 1.454e-5, 1.378e+1
0.089, 5.770e-7, 1.455e-5, 1.380e+1
0.090, 5.607e-7, 1.456e-5, 1.382e+1
0.091, 5.446e-7, 1.457e-5, 1.384e+1
0.092, 5.285e-7, 1.458e-5, 1.386e+1
0.093, 5.123e-7, 1.459e-5, 1.388e+1
0.094, 4.959e-7, 1.460e-5, 1.390e+1
0.095, 4.805e-7, 1.461e-5, 1.392e+1
0.096, 4.646e-7, 1.462e-5, 1.394e+1
0.097, 4.496e-7, 1.463e-5, 1.396e+1
0.098, 4.348e-7, 1.464e-5, 1.398e+1
0.099, 4.198e-7, 1.465e-5, 1.400e+1
0.100, 4.052e-7, 1.466e-5, 1.402e+1
0.101, 3.914e-7, 1.467e-5, 1.404e+1
0.102, 3.773e-7, 1.467e-5, 1.406e+1
0.103, 3.624e-7, 1.468e-5, 1.408e+1
0.104, 3.494e-7, 1.469e-5, 1.410e+1
0.105, 3.356e-7, 1.469e-5, 1.412e+1
0.106, 3.224e-7, 1.470e-5, 1.414e+1
0.107, 3.081e-7, 1.471e-5, 1.416e+1
0.108, 2.952e-7, 1.471e-5, 1.418e+1
0.109, 2.821e-7, 1.472e-5, 1.420e+1
0.110, 2.697e-7, 1.472e-5, 1.422e+1
0.111, 2.571e-7, 1.473e-5, 1.424e+1
0.112, 2.449e-7, 1.473e-5, 1.426e+1
0.113, 2.318e-7, 1.474e-5, 1.428e+1
0.114, 2.203e-7, 1.474e-5, 1.430e+1
0.115, 2.076e-7, 1.475e-5, 1.432e+1
0.116, 1.942e-7, 1.475e-5, 1.434e+1
0.117, 1.836e-7, 1.475e-5, 1.436e+1
0.118, 1.723e-7, 1.476e-5, 1.438e+1
0.119, 1.615e-7, 1.476e-5, 1.440e+1
0.120, 1.494e-7, 1.476e-5, 1.442e+1
0.121, 1.377e-7, 1.477e-5, 1.444e+1
0.122, 1.278e-7, 1.477e-5, 1.446e+1
0.123, 1.169e-7, 1.477e-5, 1.448e+1
0.124, 1.045e-7, 1.477e-5, 1.450e+1
0.125, 9.457e-8, 1.478e-5, 1.452e+1
0.126, 8.427e-8, 1.478e-5, 1.454e+1
0.127, 7.377e-8, 1.478e-5, 1.456e+1
0.128, 6.397e-8, 1.478e-5, 1.458e+1
0.129, 5.356e-8, 1.478e-5, 1.460e+1
0.130, 4.253e-8, 1.478e-5, 1.462e+1
0.131, 3.294e-8, 1.478e-5, 1.464e+1
0.132, 2.296e-8, 1.478e-5, 1.466e+1
0.133, 1.250e-8, 1.478e-5, 1.468e+1
0.134, 2.388e-9, 1.478e-5, 1.470e+1
0.135, -7.609e-9, 1.478e-5, 1.472e+1
0.136, -1.600e-8, 1.478e-5, 1.474e+1
0.137, -2.543e-8, 1.478e-5, 1.476e+1
0.138, -3.440e-8, 1.478e-5, 1.478e+1
0.139, -4.503e-8, 1.478e-5, 1.480e+1
0.140, -5.419e-8, 1.478e-5, 1.482e+1
0.141, -6.260e-8, 1.478e-5, 1.484e+1
0.142, -7.240e-8, 1.478e-5, 1.486e+1
0.143, -8.113e-8, 1.477e-5, 1.488e+1
0.144, -8.951e-8, 1.477e-5, 1.490e+1
0.145, -9.998e-8, 1.477e-5, 1.492e+1
0.146, -1.072e-7, 1.477e-5, 1.494e+1
0.147, -1.167e-7, 1.477e-5, 1.496e+1
0.148, -1.246e-7, 1.476e-5, 1.498e+1
0.149, -1.328e-7, 1.476e-5, 1.500e+1
0.150, -1.422e-7, 1.476e-5, 1.502e+1
0.151, -1.508e-7, 1.476e-5, 1.504e+1
0.152, -1.587e-7, 1.475e-5, 1.506e+1
0.153, -1.675e-7, 1.475e-5, 1.508e+1
0.154, -1.727e-7, 1.475e-5, 1.510e+1
0.155, -1.819e-7, 1.474e-5, 1.512e+1
0.156, -1.902e-7, 1.474e-5, 1.514e+1
0.157, -1.997e-7, 1.473e-5, 1.516e+1
0.158, -2.073e-7, 1.473e-5, 1.518e+1
0.159, -2.155e-7, 1.473e-5, 1.520e+1
0.160, -2.229e-7, 1.472e-5, 1.522e+1
0.161, -2.318e-7, 1.472e-5, 1.524e+1
0.162, -2.384e-7, 1.471e-5, 1.526e+1
0.163, -2.471e-7, 1.471e-5, 1.528e+1
0.164, -2.545e-7, 1.470e-5, 1.530e+1
0.165, -2.618e-7, 1.470e-5, 1.532e+1
0.166, -2.696e-7, 1.469e-5, 1.534e+1
0.167, -2.779e-7, 1.469e-5, 1.536e+1
0.168, -2.848e-7, 1.468e-5, 1.538e+1
0.169, -2.932e-7, 1.467e-5, 1.540e+1
0.170, -3.012e-7, 1.467e-5, 1.542e+1
0.171, -3.076e-7, 1.466e-5, 1.544e+1
0.172, -3.147e-7, 1.466e-5, 1.546e+1
0.173, -3.218e-7, 1.465e-5, 1.548e+1
0.174, -3.290e-7, 1.464e-5, 1.550e+1
0.175, -3.345e-7, 1.464e-5, 1.552e+1
0.176, -3.412e-7, 1.463e-5, 1.554e+1
0.177, -3.487e-7, 1.462e-5, 1.556e+1
0.178, -3.548e-7, 1.462e-5, 1.558e+1
0.179, -3.616e-7, 1.461e-5, 1.560e+1
0.180, -3.682e-7, 1.460e-5, 1.562e+1
0.181, -3.755e-7, 1.459e-5, 1.564e+1
0.182, -3.831e-7, 1.459e-5, 1.566e+1
0.183, -3.887e-7, 1.458e-5, 1.568e+1
0.184, -3.957e-7, 1.457e-5, 1.570e+1
0.185, -4.034e-7, 1.456e-5, 1.572e+1
0.186, -4.095e-7, 1.455e-5, 1.574e+1
0.187, -4.167e-7, 1.455e-5, 1.576e+1
0.188, -4.247e-7, 1.454e-5, 1.578e+1
0.189, -4.296e-7, 1.453e-5, 1.580e+1
0.190, -4.371e-7, 1.452e-5, 1.582e+1
0.191, -4.441e-7, 1.451e-5, 1.584e+1
0.192, -4.511e-7, 1.450e-5, 1.586e+1
0.193, -4.564e-7, 1.449e-5, 1.588e+1
0.194, -4.626e-7, 1.448e-5, 1.590e+1
0.195, -4.709e-7, 1.447e-5, 1.592e+1
0.196, -4.771e-7, 1.446e-5, 1.594e+1
0.197, -4.830e-7, 1.445e-5, 1.596e+1
0.198, -4.893e-7, 1.444e-5, 1.598e+1
0.199, -4.954e-7, 1.443e-5, 1.600e+1
0.200, -5.021e-7, 1.442e-5, 1.602e+1
0.201, -5.076e-7, 1.441e-5, 1.604e+1
0.202, -5.141e-7, 1.440e-5, 1.606e+1
0.203, -5.204e-7, 1.439e-5, 1.608e+1
0.204, -5.269e-7, 1.438e-5, 1.610e+1
0.205, -5.367e-7, 1.437e-5, 1.612e+1
0.206, -5.411e-7, 1.436e-5, 1.614e+1
0.207, -5.458e-7, 1.435e-5, 1.616e+1
0.208, -5.508e-7, 1.434e-5, 1.618e+1
0.209, -5.568e-7, 1.433e-5, 1.620e+1
0.210, -5.614e-7, 1.432e-5, 1.622e+1
0.211, -5.673e-7, 1.431e-5, 1.624e+1
0.212, -5.730e-7, 1.429e-5, 1.626e+1
0.213, -5.786e-7, 1.428e-5, 1.628e+1
0.214, -5.833e-7, 1.427e-5, 1.630e+1
0.215, -5.875e-7, 1.426e-5, 1.632e+1
0.216, -5.929e-7, 1.425e-5, 1.634e+1
0.217, -5.980e-7, 1.424e-5, 1.636e+1
0.218, -6.036e-7, 1.422e-5, 1.638e+1
0.219, -6.073e-7, 1.421e-5, 1.640e+1
0.220, -6.119e-7, 1.420e-5, 1.642e+1
0.221, -6.167e-7, 1.419e-5, 1.644e+1
0.222, -6.216e-7, 1.417e-5, 1.646e+1
0.223, -6.267e-7, 1.416e-5, 1.648e+1
0.224, -6.307e-7, 1.415e-5, 1.650e+1
0.225, -6.337e-7, 1.414e-5, 1.652e+1
0.226, -6.390e-7, 1.412e-5, 1.654e+1
0.227, -6.430e-7, 1.411e-5, 1.656e+1
0.228, -6.467e-7, 1.410e-5, 1.658e+1
0.229, -6.507e-7, 1.409e-5, 1.660e+1
0.230, -6.531e-7, 1.407e-5, 1.662e+1
0.231, -6.563e-7, 1.406e-5, 1.664e+1
0.232, -6.615e-7, 1.405e-5, 1.666e+1
0.233, -6.647e-7, 1.403e-5, 1.668e+1
0.234, -6.683e-7, 1.402e-5, 1.670e+1
0.235, -6.715e-7, 1.401e-5, 1.672e+1
0.236, -6.750e-7, 1.399e-5, 1.674e+1
0.237, -6.783e-7, 1.398e-5, 1.676e+1
0.238, -6.816e-7, 1.396e-5, 1.678e+1
0.239, -6.837e-7, 1.395e-5, 1.680e+1
0.240, -6.875e-7, 1.394e-5, 1.682e+1
0.241, -6.914e-7, 1.392e-5, 1.684e+1
0.242, -6.941e-7, 1.391e-5, 1.686e+1
0.243, -6.953e-7, 1.390e-5, 1.688e+1
0.244, -6.992e-7, 1.388e-5, 1.690e+1
0.245, -7.007e-7, 1.387e-5, 1.692e+1
0.246, -7.034e-7, 1.385e-5, 1.694e+1
0.247, -7.063e-7, 1.384e-5, 1.696e+1
0.248, -7.087e-7, 1.383e-5, 1.698e+1
0.249, -7.104e-7, 1.381e-5, 1.700e+1
0.250, -7.129e-7, 1.380e-5, 1.702e+1
0.251, -7.154e-7, 1.378e-5, 1.704e+1
0.252, -7.172e-7, 1.377e-5, 1.706e+1
0.253, -7.190e-7, 1.375e-5, 1.708e+1
0.254, -7.227e-7, 1.374e-5, 1.710e+1
0.255, -7.228e-7, 1.373e-5, 1.712e+1
0.256, -7.227e-7, 1.371e-5, 1.714e+1
0.257, -7.252e-7, 1.370e-5, 1.716e+1
0.258, -7.281e-7, 1.368e-5, 1.718e+1
0.259, -7.298e-7, 1.367e-5, 1.720e+1
0.260, -7.327e-7, 1.365e-5, 1.722e+1
0.261, -7.327e-7, 1.364e-5, 1.724e+1
0.262, -7.355e-7, 1.362e-5, 1.726e+1
0.263, -7.366e-7, 1.361e-5, 1.728e+1
0.264, -7.366e-7, 1.359e-5, 1.730e+1
0.265, -7.404e-7, 1.358e-5, 1.732e+1
0.266, -7.413e-7, 1.356e-5, 1.734e+1
0.267, -7.421e-7, 1.355e-5, 1.736e+1
0.268, -7.435e-7, 1.353e-5, 1.738e+1
0.269, -7.454e-7, 1.352e-5, 1.740e+1
0.270, -7.463e-7, 1.350e-5, 1.742e+1
0.271, -7.477e-7, 1.349e-5, 1.744e+1
0.272, -7.487e-7, 1.347e-5, 1.746e+1
0.273, -7.495e-7, 1.346e-5, 1.748e+1
0.274, -7.494e-7, 1.344e-5, 1.750e+1
0.275, -7.519e-7, 1.343e-5, 1.752e+1
0.276, -7.528e-7, 1.341e-5, 1.754e+1
0.277, -7.525e-7, 1.340e-5, 1.756e+1
0.278, -7.537e-7, 1.338e-5, 1.758e+1
0.279, -7.549e-7, 1.337e-5, 1.760e+1
0.280, -7.553e-7, 1.335e-5, 1.762e+1
0.281, -7.554e-7, 1.334e-5, 1.764e+1
0.282, -7.553e-7, 1.332e-5, 1.766e+1
0.283, -7.575e-7, 1.331e-5, 1.768e+1
0.284, -7.585e-7, 1.329e-5, 1.770e+1
0.285, -7.585e-7, 1.328e-5, 1.772e+1
0.286, -7.604e-7, 1.326e-5, 1.774e+1
0.287, -7.605e-7, 1.325e-5, 1.776e+1
0.288, -7.613e-7, 1.323e-5, 1.778e+1
0.289, -7.625e-7, 1.322e-5, 1.780e+1
0.290, -7.621e-7, 1.320e-5, 1.782e+1
0.291, -7.634e-7, 1.319e-5, 1.784e+1
0.292, -7.639e-7, 1.317e-5, 1.786e+1
0.293, -7.631e-7, 1.316e-5, 1.788e+1
0.294, -7.649e-7, 1.314e-5, 1.790e+1
0.295, -7.652e-7, 1.313e-5, 1.792e+1
0.296, -7.658e-7, 1.311e-5, 1.794e+1
0.297, -7.663e-7, 1.310e-5, 1.796e+1
0.298, -7.662e-7, 1.308e-5, 1.798e+1
0.299, -7.674e-7, 1.306e-5, 1.800e+1
0.300, -7.660e-7, 1.305e-5, 1.802e+1
0.301, -7.670e-7, 1.303e-5, 1.804e+1
0.302, -7.685e-7, 1.302e-5, 1.806e+1
0.303, -7.681e-7, 1.300e-5, 1.808e+1
0.304, -7.675e-7, 1.299e-5, 1.810e+1
0.305, -7.690e-7, 1.297e-5, 1.812e+1
0.306, -7.688e-7, 1.296e-5, 1.814e+1
0.307, -7.688e-7, 1.294e-5, 1.816e+1
0.308, -7.685e-7, 1.293e-5, 1.818e+1
0.309, -7.688e-7, 1.291e-5, 1.820e+1
0.310, -7.693e-7, 1.290e-5, 1.822e+1
0.311, -7.694e-7, 1.288e-5, 1.824e+1
0.312, -7.692e-7, 1.286e-5, 1.826e+1
0.313, -7.700e-7, 1.285e-5, 1.828e+1
0.314, -7.703e-7, 1.283e-5, 1.830e+1
0.315, -7.693e-7, 1.282e-5, 1.832e+1
0.316, -7.706e-7, 1.280e-5, 1.834e+1
0.317, -7.699e-7, 1.279e-5, 1.836e+1
0.318, -7.705e-7, 1.277e-5, 1.838e+1
0.319, -7.703e-7, 1.276e-5, 1.840e+1
0.320, -7.712e-7, 1.274e-5, 1.842e+1
0.321, -7.717e-7, 1.273e-5, 1.844e+1
0.322, -7.708e-7, 1.271e-5, 1.846e+1
0.323, -7.717e-7, 1.270e-5, 1.848e+1
0.324, -7.704e-7, 1.268e-5, 1.850e+1
0.325, -7.705e-7, 1.266e-5, 1.852e+1
0.326, -7.718e-7, 1.265e-5, 1.854e+1
0.327, -7.716e-7, 1.263e-5, 1.856e+1
0.328, -7.717e-7, 1.262e-5, 1.858e+1
0.329, -7.717e-7, 1.260e-5, 1.860e+1
0.330, -7.720e-7, 1.259e-5, 1.862e+1
0.331, -7.721e-7, 1.257e-5, 1.864e+1
0.332, -7.722e-7, 1.256e-5, 1.866e+1
0.333, -7.710e-7, 1.254e-5, 1.868e+1
0.334, -7.722e-7, 1.253e-5, 1.870e+1
0.335, -7.722e-7, 1.251e-5, 1.872e+1
0.336, -7.725e-7, 1.249e-5, 1.874e+1
0.337, -7.728e-7, 1.248e-5, 1.876e+1
0.338, -7.720e-7, 1.246e-5, 1.878e+1
0.339, -7.732e-7, 1.245e-5, 1.880e+1
0.340, -7.733e-7, 1.243e-5, 1.882e+1
0.341, -7.731e-7, 1.242e-5, 1.884e+1
0.342, -7.738e-7, 1.240e-5, 1.886e+1
0.343, -7.737e-7, 1.239e-5, 1.888e+1
0.344, -7.736e-7, 1.237e-5, 1.890e+1
0.345, -7.744e-7, 1.236e-5, 1.892e+1
0.346, -7.748e-7, 1.234e-5, 1.894e+1
0.347, -7.744e-7, 1.232e-5, 1.896e+1
0.348, -7.746e-7, 1.231e-5, 1.898e+1
0.349, -7.754e-7, 1.229e-5, 1.900e+1
0.350, -7.749e-7, 1.228e-5, 1.902e+1
0.351, -7.749e-7, 1.226e-5, 1.904e+1
0.352, -7.755e-7, 1.225e-5, 1.906e+1
0.353, -7.757e-7, 1.223e-5, 1.908e+1
0.354, -7.760e-7, 1.222e-5, 1.910e+1
0.355, -7.768e-7, 1.220e-5, 1.912e+1
0.356, -7.773e-7, 1.218e-5, 1.914e+1
0.357, -7.765e-7, 1.217e-5, 1.916e+1
0.358, -7.767e-7, 1.215e-5, 1.918e+1
0.359, -7.750e-7, 1.214e-5, 1.920e+1
0.360, -7.770e-7, 1.212e-5, 1.922e+1
0.361, -7.786e-7, 1.211e-5, 1.924e+1
0.362, -7.780e-7, 1.209e-5, 1.926e+1
0.363, -7.787e-7, 1.208e-5, 1.928e+1
0.364, -7.794e-7, 1.206e-5, 1.930e+1
0.365, -7.798e-7, 1.204e-5, 1.932e+1
0.366, -7.803e-7, 1.203e-5, 1.934e+1
0.367, -7.800e-7, 1.201e-5, 1.936e+1
0.368, -7.809e-7, 1.200e-5, 1.938e+1
0.369, -7.831e-7, 1.198e-5, 1.940e+1
0.370, -7.821e-7, 1.197e-5, 1.942e+1
0.371, -7.826e-7, 1.195e-5, 1.944e+1
0.372, -7.843e-7, 1.194e-5, 1.946e+1
0.373, -7.837e-7, 1.192e-5, 1.948e+1
0.374, -7.842e-7, 1.190e-5, 1.950e+1
0.375, -7.855e-7, 1.189e-5, 1.952e+1
0.376, -7.859e-7, 1.187e-5, 1.954e+1
0.377, -7.865e-7, 1.186e-5, 1.956e+1
0.378, -7.881e-7, 1.184e-5, 1.958e+1
0.379, -7.883e-7, 1.183e-5, 1.960e+1
0.380, -7.887e-7, 1.181e-5, 1.962e+1
0.381, -7.893e-7, 1.179e-5, 1.964e+1
0.382, -7.910e-7, 1.178e-5, 1.966e+1
0.383, -7.918e-7, 1.176e-5, 1.968e+1
0.384, -7.914e-7, 1.175e-5, 1.970e+1
0.385, -7.925e-7, 1.173e-5, 1.972e+1
0.386, -7.946e-7, 1.171e-5, 1.974e+1
0.387, -7.950e-7, 1.170e-5, 1.976e+1
0.388, -7.949e-7, 1.168e-5, 1.978e+1
0.389, -7.967e-7, 1.167e-5, 1.980e+1
0.390, -7.983e-7, 1.165e-5, 1.982e+1
0.391, -7.995e-7, 1.163e-5, 1.984e+1
0.392, -8.000e-7, 1.162e-5, 1.986e+1
0.393, -8.013e-7, 1.160e-5, 1.988e+1
0.394, -8.011e-7, 1.159e-5, 1.990e+1
0.395, -8.031e-7, 1.157e-5, 1.992e+1
0.396, -8.049e-7, 1.155e-5, 1.994e+1
0.397, -8.062e-7, 1.154e-5, 1.996e+1
0.398, -8.072e-7, 1.152e-5, 1.998e+1
0.399, -8.083e-7, 1.151e-5, 2.000e+1
0.400, -8.103e-7, 1.149e-5, 2.002e+1
0.401, -8.119e-7, 1.147e-5, 2.004e+1
0.402, -8.129e-7, 1.146e-5, 2.006e+1
0.403, -8.154e-7, 1.144e-5, 2.008e+1
0.404, -8.162e-7, 1.142e-5, 2.010e+1
0.405, -8.183e-7, 1.141e-5, 2.012e+1
0.406, -8.196e-7, 1.139e-5, 2.014e+1
0.407, -8.203e-7, 1.138e-5, 2.016e+1
0.408, -8.222e-7, 1.136e-5, 2.018e+1
0.409, -8.240e-7, 1.134e-5, 2.020e+1
0.410, -8.158e-7, 1.133e-5, 2.022e+1
0.411, -8.250e-7, 1.131e-5, 2.024e+1
0.412, -8.276e-7, 1.129e-5, 2.026e+1
0.413, -8.297e-7, 1.128e-5, 2.028e+1
0.414, -8.326e-7, 1.126e-5, 2.030e+1
0.415, -8.347e-7, 1.124e-5, 2.032e+1
0.416, -8.367e-7, 1.123e-5, 2.034e+1
0.417, -8.383e-7, 1.121e-5, 2.036e+1
0.418, -8.412e-7, 1.119e-5, 2.038e+1
0.419, -8.423e-7, 1.118e-5, 2.040e+1
0.420, -8.442e-7, 1.116e-5, 2.042e+1
0.421, -8.476e-7, 1.114e-5, 2.044e+1
0.422, -8.495e-7, 1.113e-5, 2.046e+1
0.423, -8.526e-7, 1.111e-5, 2.048e+1
0.424, -8.536e-7, 1.109e-5, 2.050e+1
0.425, -8.568e-7, 1.107e-5, 2.052e+1
0.426, -8.599e-7, 1.106e-5, 2.054e+1
0.427, -8.621e-7, 1.104e-5, 2.056e+1
0.428, -8.650e-7, 1.102e-5, 2.058e+1
0.429, -8.679e-7, 1.101e-5, 2.060e+1
0.430, -8.702e-7, 1.099e-5, 2.062e+1
0.431, -8.732e-7, 1.097e-5, 2.064e+1
0.432, -8.767e-7, 1.095e-5, 2.066e+1
0.433, -8.796e-7, 1.094e-5, 2.068e+1
0.434, -8.824e-7, 1.092e-5, 2.070e+1
0.435, -8.858e-7, 1.090e-5, 2.072e+1
0.436, -8.876e-7, 1.088e-5, 2.074e+1
0.437, -8.908e-7, 1.086e-5, 2.076e+1
0.438, -8.954e-7, 1.085e-5, 2.078e+1
0.439, -8.993e-7, 1.083e-5, 2.080e+1
0.440, -9.010e-7, 1.081e-5, 2.082e+1
0.441, -9.046e-7, 1.079e-5, 2.084e+1
0.442, -9.084e-7, 1.077e-5, 2.086e+1
0.443, -9.130e-7, 1.076e-5, 2.088e+1
0.444, -9.164e-7, 1.074e-5, 2.090e+1
0.445, -9.197e-7, 1.072e-5, 2.092e+1
0.446, -9.240e-7, 1.070e-5, 2.094e+1
0.447, -9.273e-7, 1.068e-5, 2.096e+1
0.448, -9.325e-7, 1.066e-5, 2.098e+1
0.449, -9.364e-7, 1.064e-5, 2.100e+1
0.450, -9.406e-7, 1.063e-5, 2.102e+1
0.451, -9.447e-7, 1.061e-5, 2.104e+1
0.452, -9.488e-7, 1.059e-5, 2.106e+1
0.453, -9.527e-7, 1.057e-5, 2.108e+1
0.454, -9.580e-7, 1.055e-5, 2.110e+1
0.455, -9.633e-7, 1.053e-5, 2.112e+1
0.456, -9.662e-7, 1.051e-5, 2.114e+1
0.457, -9.713e-7, 1.049e-5, 2.116e+1
0.458, -9.773e-7, 1.047e-5, 2.118e+1
0.459, -9.813e-7, 1.045e-5, 2.120e+1
0.460, -9.859e-7, 1.043e-5, 2.122e+1
0.461, -9.883e-7, 1.041e-5, 2.124e+1
0.462, -9.952e-7, 1.039e-5, 2.126e+1
0.463, -1.001e-6, 1.037e-5, 2.128e+1
0.464, -1.006e-6, 1.035e-5, 2.130e+1
0.465, -1.011e-6, 1.033e-5, 2.132e+1
0.466, -1.018e-6, 1.031e-5, 2.134e+1
0.467, -1.024e-6, 1.029e-5, 2.136e+1
0.468, -1.029e-6, 1.027e-5, 2.138e+1
0.469, -1.035e-6, 1.025e-5, 2.140e+1
0.470, -1.040e-6, 1.023e-5, 2.142e+1
0.471, -1.046e-6, 1.021e-5, 2.144e+1
0.472, -1.052e-6, 1.019e-5, 2.146e+1
0.473, -1.058e-6, 1.017e-5, 2.148e+1
0.474, -1.065e-6, 1.015e-5, 2.150e+1
0.475, -1.072e-6, 1.012e-5, 2.152e+1
0.476, -1.078e-6, 1.010e-5, 2.154e+1
0.477, -1.083e-6, 1.008e-5, 2.156e+1
0.478, -1.091e-6, 1.006e-5, 2.158e+1
0.479, -1.097e-6, 1.004e-5, 2.160e+1
0.480, -1.104e-6, 1.001e-5, 2.162e+1
0.481, -1.112e-6, 9.993e-6, 2.164e+1
0.482, -1.118e-6, 9.970e-6, 2.166e+1
0.483, -1.125e-6, 9.948e-6, 2.168e+1
0.484, -1.132e-6, 9.925e-6, 2.170e+1
0.485, -1.138e-6, 9.902e-6, 2.172e+1
0.486, -1.146e-6, 9.879e-6, 2.174e+1
0.487, -1.152e-6, 9.856e-6, 2.176e+1
0.488, -1.161e-6, 9.833e-6, 2.178e+1
0.489, -1.169e-6, 9.810e-6, 2.180e+1
0.490, -1.175e-6, 9.786e-6, 2.182e+1
0.491, -1.183e-6, 9.763e-6, 2.184e+1
0.492, -1.192e-6, 9.739e-6, 2.186e+1
0.493, -1.200e-6, 9.715e-6, 2.188e+1
0.494, -1.208e-6, 9.691e-6, 2.190e+1
0.495, -1.215e-6, 9.666e-6, 2.192e+1
0.496, -1.224e-6, 9.642e-6, 2.194e+1
0.497, -1.232e-6, 9.617e-6, 2.196e+1
0.498, -1.241e-6, 9.592e-6, 2.198e+1
0.499, -1.249e-6, 9.567e-6, 2.200e+1
0.500, -1.258e-6, 9.542e-6, 2.202e+1
0.501, -1.265e-6, 9.517e-6, 2.204e+1
0.502, -1.276e-6, 9.491e-6, 2.206e+1
0.503, -1.285e-6, 9.466e-6, 2.208e+1
0.504, -1.293e-6, 9.440e-6, 2.210e+1
0.505, -1.302e-6, 9.414e-6, 2.212e+1
0.506, -1.311e-6, 9.388e-6, 2.214e+1
0.507, -1.320e-6, 9.361e-6, 2.216e+1
0.508, -1.330e-6, 9.335e-6, 2.218e+1
0.509, -1.339e-6, 9.308e-6, 2.220e+1
0.510, -1.349e-6, 9.281e-6, 2.222e+1
0.511, -1.358e-6, 9.254e-6, 2.224e+1
0.512, -1.368e-6, 9.226e-6, 2.226e+1
0.513, -1.379e-6, 9.199e-6, 2.228e+1
0.514, -1.387e-6, 9.171e-6, 2.230e+1
0.515, -1.397e-6, 9.143e-6, 2.232e+1
0.516, -1.407e-6, 9.115e-6, 2.234e+1
0.517, -1.417e-6, 9.087e-6, 2.236e+1
0.518, -1.428e-6, 9.058e-6, 2.238e+1
0.519, -1.438e-6, 9.029e-6, 2.240e+1
0.520, -1.449e-6, 9.000e-6, 2.242e+1
0.521, -1.458e-6, 8.971e-6, 2.244e+1
0.522, -1.469e-6, 8.942e-6, 2.246e+1
0.523, -1.480e-6, 8.912e-6, 2.248e+1
0.524, -1.490e-6, 8.882e-6, 2.250e+1
0.525, -1.502e-6, 8.852e-6, 2.252e+1
0.526, -1.513e-6, 8.822e-6, 2.254e+1
0.527, -1.524e-6, 8.792e-6, 2.256e+1
0.528, -1.534e-6, 8.761e-6, 2.258e+1
0.529, -1.546e-6, 8.730e-6, 2.260e+1
0.530, -1.556e-6, 8.699e-6, 2.262e+1
0.531, -1.569e-6, 8.667e-6, 2.264e+1
0.532, -1.580e-6, 8.636e-6, 2.266e+1
0.533, -1.591e-6, 8.604e-6, 2.268e+1
0.534, -1.603e-6, 8.572e-6, 2.270e+1
0.535, -1.615e-6, 8.540e-6, 2.272e+1
0.536, -1.627e-6, 8.507e-6, 2.274e+1
0.537, -1.640e-6, 8.474e-6, 2.276e+1
0.538, -1.649e-6, 8.441e-6, 2.278e+1
0.539, -1.662e-6, 8.408e-6, 2.280e+1
0.540, -1.675e-6, 8.375e-6, 2.282e+1
0.541, -1.687e-6, 8.341e-6, 2.284e+1
0.542, -1.701e-6, 8.307e-6, 2.286e+1
0.543, -1.713e-6, 8.273e-6, 2.288e+1
0.544, -1.725e-6, 8.238e-6, 2.290e+1
0.545, -1.738e-6, 8.203e-6, 2.292e+1
0.546, -1.749e-6, 8.168e-6, 2.294e+1
0.547, -1.763e-6, 8.133e-6, 2.296e+1
0.548, -1.776e-6, 8.098e-6, 2.298e+1
0.549, -1.789e-6, 8.062e-6, 2.300e+1
0.550, -1.803e-6, 8.026e-6, 2.302e+1
0.551, -1.816e-6, 7.989e-6, 2.304e+1
0.552, -1.829e-6, 7.953e-6, 2.306e+1
0.553, -1.842e-6, 7.916e-6, 2.308e+1
0.554, -1.856e-6, 7.879e-6, 2.310e+1
0.555, -1.870e-6, 7.842e-6, 2.312e+1
0.556, -1.883e-6, 7.804e-6, 2.314e+1
0.557, -1.898e-6, 7.766e-6, 2.316e+1
0.558, -1.912e-6, 7.728e-6, 2.318e+1
0.559, -1.925e-6, 7.689e-6, 2.320e+1
0.560, -1.940e-6, 7.650e-6, 2.322e+1
0.561, -1.954e-6, 7.611e-6, 2.324e+1
0.562, -1.968e-6, 7.572e-6, 2.326e+1
0.563, -1.980e-6, 7.532e-6, 2.328e+1
0.564, -1.993e-6, 7.492e-6, 2.330e+1
0.565, -2.009e-6, 7.452e-6, 2.332e+1
0.566, -2.026e-6, 7.412e-6, 2.334e+1
0.567, -2.041e-6, 7.371e-6, 2.336e+1
0.568, -2.055e-6, 7.330e-6, 2.338e+1
0.569, -2.070e-6, 7.288e-6, 2.340e+1
0.570, -2.085e-6, 7.247e-6, 2.342e+1
0.571, -2.101e-6, 7.205e-6, 2.344e+1
0.572, -2.116e-6, 7.162e-6, 2.346e+1
0.573, -2.130e-6, 7.120e-6, 2.348e+1
0.574, -2.146e-6, 7.077e-6, 2.350e+1
0.575, -2.162e-6, 7.034e-6, 2.352e+1
0.576, -2.178e-6, 6.990e-6, 2.354e+1
0.577, -2.194e-6, 6.946e-6, 2.356e+1
0.578, -2.210e-6, 6.902e-6, 2.358e+1
0.579, -2.226e-6, 6.858e-6, 2.360e+1
0.580, -2.242e-6, 6.813e-6, 2.362e+1
0.581, -2.257e-6, 6.768e-6, 2.364e+1
0.582, -2.274e-6, 6.722e-6, 2.366e+1
0.583, -2.291e-6, 6.676e-6, 2.368e+1
0.584, -2.306e-6, 6.630e-6, 2.370e+1
0.585, -2.323e-6, 6.584e-6, 2.372e+1
0.586, -2.340e-6, 6.537e-6, 2.374e+1
0.587, -2.357e-6, 6.490e-6, 2.376e+1
0.588, -2.374e-6, 6.442e-6, 2.378e+1
0.589, -2.390e-6, 6.394e-6, 2.380e+1
0.590, -2.408e-6, 6.346e-6, 2.382e+1
0.591, -2.425e-6, 6.298e-6, 2.384e+1
0.592, -2.443e-6, 6.249e-6, 2.386e+1
0.593, -2.460e-6, 6.200e-6, 2.388e+1
0.594, -2.476e-6, 6.150e-6, 2.390e+1
0.595, -2.495e-6, 6.100e-6, 2.392e+1
0.596, -2.514e-6, 6.050e-6, 2.394e+1
0.597, -2.531e-6, 5.999e-6, 2.396e+1
0.598, -2.548e-6, 5.948e-6, 2.398e+1
0.599, -2.566e-6, 5.897e-6, 2.400e+1
